EOG,20150310,86.88,88.57,86.15,86.19,4791900
EOG,20150309,88.08,89.25,87.64,87.72,3440800
EOG,20150306,88.92,90.00,88.23,88.57,4059100
EOG,20150305,89.85,90.52,89.37,89.59,2663400
EOG,20150304,90.20,90.95,88.55,90.49,3868200
EOG,20150303,88.98,91.11,88.60,90.37,4381400
EOG,20150302,89.72,89.72,87.08,89.06,5347800
EOG,20150227,90.63,90.71,89.29,89.72,3837600
EOG,20150226,91.81,92.25,89.61,90.13,5427100
EOG,20150225,91.54,93.25,91.29,93.03,5787800
EOG,20150224,92.85,93.00,91.26,91.61,4215000
EOG,20150223,90.06,92.10,89.25,91.93,5501300
EOG,20150220,93.09,93.46,90.07,91.08,7937800
EOG,20150219,86.68,94.74,86.58,93.80,18682400
EOG,20150218,96.49,96.49,94.50,95.31,4534000
EOG,20150217,96.08,96.67,95.65,96.49,4234300
EOG,20150213,95.94,96.97,95.25,96.92,4158500
EOG,20150212,94.96,95.24,93.47,94.80,3944500
EOG,20150211,93.84,94.09,92.15,93.20,6332300
EOG,20150210,96.65,96.69,93.84,95.26,4308300
EOG,20150209,96.60,97.23,95.78,95.95,4249100
EOG,20150206,96.99,97.21,95.57,95.79,5177000
EOG,20150205,95.71,97.29,95.16,96.19,5596600
EOG,20150204,94.40,97.53,93.54,95.19,9869100
EOG,20150203,94.72,97.88,94.65,96.31,8906600
EOG,20150202,90.99,92.57,89.53,92.52,5615500
EOG,20150130,88.16,90.07,87.40,89.03,7469900
EOG,20150129,89.12,89.41,86.76,88.91,5188700
EOG,20150128,92.33,92.69,87.76,88.10,5772900
EOG,20150127,91.94,94.41,91.12,93.00,5283000
EOG,20150126,91.23,92.39,90.15,92.33,3431100
EOG,20150123,90.07,92.52,89.70,90.79,4433700
EOG,20150122,91.38,91.38,88.58,90.36,4471600
EOG,20150121,90.59,91.40,89.68,90.54,4911900
EOG,20150120,89.09,89.78,87.52,89.33,5969500
EOG,20150116,86.86,90.54,86.54,90.31,5483500
EOG,20150115,89.04,89.50,86.45,86.53,4941700
EOG,20150114,84.07,88.09,83.67,87.74,6698200
EOG,20150113,84.97,86.66,84.05,85.06,5444200
EOG,20150112,85.11,85.35,83.20,84.51,4810300
EOG,20150109,87.02,88.03,86.01,87.46,4027200
EOG,20150108,84.72,87.65,84.07,86.88,5836500
EOG,20150107,85.18,85.73,82.72,83.68,5950300
EOG,20150106,85.84,86.60,82.76,84.21,8142000
EOG,20150105,89.96,90.78,86.02,86.68,6173600
EOG,20150102,91.01,92.99,90.36,92.24,3462300
EOG,20141231,91.97,93.55,90.75,92.07,3329200
EOG,20141230,93.50,94.33,91.89,92.70,3379400
EOG,20141229,94.55,95.21,93.45,94.33,3397000
EOG,20141226,94.90,95.20,93.33,93.82,2210600
EOG,20141224,95.61,95.64,92.51,94.05,3012800
EOG,20141223,95.74,97.27,94.54,96.41,4243900
EOG,20141222,94.21,95.62,93.68,95.06,6746600
EOG,20141219,93.63,95.09,92.45,95.02,7853400
EOG,20141218,93.83,94.39,88.90,92.45,8888600
EOG,20141217,87.61,92.21,86.11,91.14,10269500
EOG,20141216,83.86,89.39,83.78,85.47,8303700
EOG,20141215,87.09,88.16,84.95,85.34,6867000
EOG,20141212,85.31,88.42,85.10,86.37,6606200
EOG,20141211,87.19,89.76,86.13,86.86,5808100
EOG,20141210,86.38,87.26,85.54,86.79,8821700
EOG,20141209,87.00,91.12,86.77,89.15,8197500
EOG,20141208,89.08,89.50,87.51,88.19,8672200
EOG,20141205,91.91,92.05,89.78,90.75,7572500
EOG,20141204,90.79,93.00,89.75,93.00,5108100
EOG,20141203,91.71,93.60,90.80,91.80,6237200
EOG,20141202,87.38,91.33,86.87,90.30,10146400
EOG,20141201,85.52,87.58,83.66,87.24,10063500
EOG,20141128,87.16,88.43,85.19,86.72,9472100
EOG,20141126,96.62,96.63,93.86,94.07,5346100
EOG,20141125,100.28,100.32,96.72,96.74,5591700
EOG,20141124,101.18,101.74,99.25,99.56,4110600
EOG,20141121,102.49,103.04,101.29,101.74,6378000
EOG,20141120,98.45,100.29,98.34,99.44,4623400
EOG,20141119,98.75,98.80,96.78,98.33,3830800
EOG,20141118,96.32,98.26,96.09,97.67,3917200
EOG,20141117,97.01,97.38,95.73,96.35,4349400
EOG,20141114,96.32,98.36,96.20,98.16,3992500
EOG,20141113,96.50,97.44,94.47,95.85,5859100
EOG,20141112,98.68,99.35,97.35,97.56,3433600
EOG,20141111,98.50,99.07,97.11,98.75,4274300
EOG,20141110,101.01,102.25,97.99,98.50,5947800
EOG,20141107,99.72,101.58,99.27,99.55,7009200
EOG,20141106,95.19,99.18,95.11,98.97,8202200
EOG,20141105,95.50,97.47,93.56,96.10,11401900
EOG,20141104,89.67,90.99,89.00,90.28,8208000
EOG,20141103,95.05,96.81,92.89,93.32,7006200
EOG,20141031,91.95,95.10,90.74,95.05,5495200
EOG,20141030,92.57,93.29,91.03,92.22,3743400
EOG,20141029,94.24,95.32,91.76,93.13,5926100
EOG,20141028,88.81,91.91,87.55,91.50,6123200
EOG,20141027,90.28,90.28,86.95,88.43,7433800
EOG,20141024,92.95,93.02,90.20,92.10,5417400
EOG,20141023,94.24,94.84,92.40,93.40,9219300
EOG,20141022,96.76,97.00,91.98,92.07,7672400
EOG,20141021,94.35,96.15,94.27,96.03,6298800
EOG,20141020,91.63,93.13,90.77,92.76,4420600
EOG,20141017,94.20,95.55,90.26,91.22,8665500
EOG,20141016,85.19,92.52,85.19,91.27,10111100
EOG,20141015,82.03,88.53,81.07,88.17,11107300
EOG,20141014,85.40,86.88,83.50,83.84,12228000
EOG,20141013,89.25,90.30,83.58,83.76,9446700
EOG,20141010,91.07,91.95,88.61,89.83,9915400
EOG,20141009,93.64,93.73,90.88,91.96,9684400
EOG,20141008,93.31,94.69,90.80,94.56,7723600
EOG,20141007,95.02,96.02,93.57,93.61,5515800
EOG,20141006,96.84,97.00,94.36,95.09,5114400
EOG,20141003,97.72,97.72,95.57,96.57,4433900
EOG,20141002,95.76,97.64,94.27,97.06,5381500
EOG,20141001,99.21,99.73,96.15,96.85,5856700
EOG,20140930,101.85,101.85,97.45,99.02,6422700
EOG,20140929,100.80,102.06,100.10,101.87,4300400
EOG,20140926,100.37,102.41,100.21,101.88,3327500
EOG,20140925,102.64,102.70,100.14,100.36,3588900
EOG,20140924,100.94,102.87,99.55,102.14,4584400
EOG,20140923,101.55,101.63,100.45,100.84,5577300
EOG,20140922,103.82,103.86,100.57,101.74,4437000
EOG,20140919,105.24,105.90,103.96,104.37,6346200
EOG,20140918,105.82,105.99,104.21,104.98,3003200
EOG,20140917,105.65,106.09,104.52,105.19,3689600
EOG,20140916,102.33,105.90,101.75,105.22,4116100
EOG,20140915,100.80,102.41,100.12,101.91,3055400
EOG,20140912,102.50,102.57,101.03,101.32,3699800
EOG,20140911,100.93,103.13,100.50,103.06,4596100
EOG,20140910,100.93,102.14,99.33,102.01,3713700
EOG,20140909,101.63,102.49,100.82,101.31,3636000
EOG,20140908,104.07,104.07,100.75,101.41,5549200
EOG,20140905,104.35,105.29,103.05,105.18,3235500
EOG,20140904,107.76,107.99,103.97,104.61,3937200
EOG,20140903,108.85,109.08,107.46,107.74,1479100
EOG,20140902,109.57,109.85,107.08,107.71,2755100
EOG,20140829,108.80,109.98,108.37,109.88,1802700
EOG,20140828,108.32,109.08,108.10,108.39,1756800
EOG,20140827,109.43,109.45,108.07,108.61,1996700
EOG,20140826,108.86,110.47,108.50,109.40,3283200
EOG,20140825,106.93,108.25,106.60,107.94,1932600
EOG,20140822,106.59,106.84,105.61,106.27,2075400
EOG,20140821,107.50,107.52,106.02,107.19,2138800
EOG,20140820,107.09,107.45,106.10,107.28,2185900
EOG,20140819,106.10,107.35,105.66,107.03,3145300
EOG,20140818,106.65,106.91,104.66,105.43,3275500
EOG,20140815,103.97,106.42,103.67,106.09,4557700
EOG,20140814,107.22,107.23,103.57,103.93,3490700
EOG,20140813,107.66,107.88,106.22,106.35,2337400
EOG,20140812,107.89,108.49,106.34,106.69,3265800
EOG,20140811,108.72,109.00,107.92,108.30,2760600
EOG,20140808,106.07,107.90,106.07,107.78,2354100
EOG,20140807,107.63,107.63,105.40,106.06,2977200
EOG,20140806,107.03,108.51,105.63,106.64,5007700
EOG,20140805,111.81,111.81,107.51,108.63,4848700
EOG,20140804,108.74,112.12,108.08,111.81,3002600
EOG,20140801,108.65,109.81,107.16,108.04,3966400
EOG,20140731,112.84,113.09,109.37,109.44,4162500
EOG,20140730,114.83,115.44,113.36,113.63,1778300
EOG,20140729,113.27,115.33,113.19,114.24,2502800
EOG,20140728,114.82,115.02,113.00,113.39,2993500
EOG,20140725,115.58,115.86,114.40,114.82,1981100
EOG,20140724,116.48,116.93,115.70,116.20,2864400
EOG,20140723,116.70,116.70,115.30,115.95,3621600
EOG,20140722,116.75,117.62,115.80,116.55,2600600
EOG,20140721,115.86,116.43,115.12,116.15,1595000
EOG,20140718,115.36,116.39,114.34,116.04,2605200
EOG,20140717,117.48,118.81,115.35,115.55,2286700
EOG,20140716,114.62,117.28,114.17,117.10,3181000
EOG,20140715,114.91,115.62,112.64,113.44,3367700
EOG,20140714,114.65,116.05,114.31,115.69,2956100
EOG,20140711,115.74,115.74,113.39,113.65,2482100
EOG,20140710,114.88,115.88,113.76,114.96,2212700
EOG,20140709,116.10,116.63,115.19,116.56,1938800
EOG,20140708,115.37,116.55,115.13,115.98,2511100
EOG,20140707,116.40,116.50,115.42,115.73,1574500
EOG,20140703,116.27,117.02,115.11,116.75,1677900
EOG,20140702,116.86,117.59,115.54,116.23,2649800
EOG,20140701,117.44,117.94,116.02,116.55,2793600
EOG,20140630,116.08,117.19,115.85,116.86,2342000
EOG,20140627,115.23,115.93,114.71,115.84,2801600
EOG,20140626,115.68,115.82,114.07,115.42,2355100
EOG,20140625,113.32,116.25,113.32,116.02,3456700
EOG,20140624,117.18,117.45,112.24,113.02,4574300
EOG,20140623,118.52,118.89,116.95,117.41,3328800
EOG,20140620,117.05,118.39,116.15,117.98,5556100
EOG,20140619,113.14,115.85,112.52,115.80,3865900
EOG,20140618,112.58,113.84,111.74,113.54,2912400
EOG,20140617,113.95,113.95,111.26,112.39,5247000
EOG,20140616,115.21,115.21,113.02,114.03,4075200
EOG,20140613,111.77,114.06,110.53,114.02,3126400
EOG,20140612,111.46,113.02,111.22,111.63,3799500
EOG,20140611,108.25,110.91,108.14,110.70,2683700
EOG,20140610,109.39,109.75,108.41,108.69,2174200
EOG,20140609,110.09,110.75,109.00,109.51,2366300
EOG,20140606,108.14,109.56,108.04,109.32,2151400
EOG,20140605,106.35,107.91,105.82,107.90,2212100
EOG,20140604,106.48,106.73,105.56,106.37,1695600
EOG,20140603,105.45,106.66,105.27,106.66,1974800
EOG,20140602,105.95,106.00,104.95,105.38,1712400
EOG,20140530,106.27,106.36,105.25,105.80,2293300
EOG,20140529,105.42,106.71,105.00,106.67,2565500
EOG,20140528,104.86,105.63,104.40,105.19,2724800
EOG,20140527,104.44,104.97,103.75,104.73,2072500
EOG,20140523,103.89,105.15,103.44,103.97,2535000
EOG,20140522,104.29,105.17,103.53,103.68,2457100
EOG,20140521,102.70,104.36,102.13,104.16,1777500
EOG,20140520,102.22,102.95,101.47,101.89,1937500
EOG,20140519,102.50,103.36,101.96,102.30,1832600
EOG,20140516,102.57,102.88,101.34,102.50,2846300
EOG,20140515,103.97,103.98,101.55,102.74,2608100
EOG,20140514,105.39,105.49,103.86,103.90,2415000
EOG,20140513,104.58,105.50,104.07,105.17,3426300
EOG,20140512,102.57,103.73,101.98,103.64,3351800
EOG,20140509,102.00,102.30,100.64,102.28,3709500
EOG,20140508,104.03,104.56,101.62,101.73,3264300
EOG,20140507,104.61,105.45,102.64,104.79,5705400
EOG,20140506,102.80,106.50,101.84,103.63,8515800
EOG,20140505,96.04,99.71,96.01,99.25,4757400
EOG,20140502,97.30,98.25,96.82,97.06,3710900
EOG,20140501,98.33,98.77,96.81,97.12,4240100
EOG,20140430,99.07,99.20,97.01,98.00,6297700
EOG,20140429,98.88,101.23,98.83,99.62,4089100
EOG,20140428,99.94,100.00,96.53,98.06,5112100
EOG,20140425,103.25,103.30,98.52,99.04,7168000
EOG,20140424,105.50,105.50,103.42,103.48,3716000
EOG,20140423,102.53,105.18,102.53,105.08,3445700
EOG,20140422,103.27,103.27,102.11,102.34,3332800
EOG,20140421,102.98,103.58,101.84,103.53,2404700
EOG,20140417,100.84,102.84,100.84,102.45,3253200
EOG,20140416,101.48,102.20,100.43,101.01,3650900
EOG,20140415,99.63,101.68,99.52,101.11,4695400
EOG,20140414,99.52,100.10,98.72,99.96,3427800
EOG,20140411,97.67,99.44,97.57,98.63,4581500
EOG,20140410,98.63,99.99,97.56,98.11,4706000
EOG,20140409,98.94,99.17,97.99,98.95,3826700
EOG,20140408,97.78,99.58,97.54,98.71,3293600
EOG,20140407,99.72,99.98,97.45,97.93,3146300
EOG,20140404,102.67,103.30,98.95,99.77,4028600
EOG,20140403,99.33,101.50,99.26,100.65,5219000
EOG,20140402,98.27,99.45,98.02,99.11,2858000
EOG,20140401,99.38,100.36,98.26,98.98,3422900
EOG,20140331,198.47,199.50,195.05,196.17,8285600
EOG,20140328,194.47,198.82,194.11,197.16,4051000
EOG,20140327,192.29,195.40,192.02,193.46,3528200
EOG,20140326,192.55,195.32,191.90,192.12,4117200
EOG,20140325,191.18,192.97,190.90,191.57,3816400
EOG,20140324,192.25,192.97,188.46,189.60,3461600
EOG,20140321,191.91,193.16,189.38,191.64,5331800
EOG,20140320,187.62,190.56,186.07,190.33,4022400
EOG,20140319,189.35,189.44,186.03,187.53,3165000
EOG,20140318,187.40,190.52,187.18,189.16,3166000
EOG,20140317,186.60,188.00,186.00,187.23,2722400
EOG,20140314,182.97,186.21,182.90,185.97,3178400
EOG,20140313,186.25,186.65,181.77,182.91,3763800
EOG,20140312,183.60,186.43,181.66,185.13,4087600
EOG,20140311,189.84,190.17,185.32,185.60,4103200
EOG,20140310,189.92,189.92,187.12,189.05,2759200
EOG,20140307,191.52,191.95,188.20,189.92,3917200
EOG,20140306,190.72,192.21,189.33,191.06,3450600
EOG,20140305,192.04,193.22,190.05,190.49,3900800
EOG,20140304,190.47,192.92,190.33,191.56,4265400
EOG,20140303,189.05,192.00,188.62,189.29,5608400
EOG,20140228,187.72,191.08,187.11,189.42,5076400
EOG,20140227,186.41,187.65,184.49,187.47,3779600
EOG,20140226,183.61,188.41,182.88,186.44,7214400
EOG,20140225,182.85,185.13,179.25,184.00,7461200
EOG,20140224,178.43,181.62,177.03,180.40,7053200
EOG,20140221,180.47,180.97,177.94,178.00,5410800
EOG,20140220,179.04,182.06,178.15,180.03,4512000
EOG,20140219,179.05,181.61,178.40,178.86,3835000
EOG,20140218,178.12,180.26,178.01,179.92,3654600
EOG,20140214,175.71,177.25,174.89,176.96,2337600
EOG,20140213,173.58,176.75,172.60,175.47,3432600
EOG,20140212,175.75,176.90,174.49,175.11,2585000
EOG,20140211,174.30,176.21,173.56,174.73,3298800
EOG,20140210,176.76,176.76,173.07,174.20,3538200
EOG,20140207,174.77,176.88,173.14,176.50,4170600
EOG,20140206,167.69,173.79,167.69,173.25,5142200
EOG,20140205,168.10,169.70,166.77,167.49,4293000
EOG,20140204,162.67,168.99,162.50,168.58,6576800
EOG,20140203,164.61,166.86,161.50,161.74,4528800
EOG,20140131,164.67,167.60,163.18,165.24,2639600
EOG,20140130,165.10,167.50,164.65,166.13,2263000
EOG,20140129,165.92,166.16,163.54,164.65,3280400
EOG,20140128,163.38,167.50,162.29,167.22,3292600
EOG,20140127,165.17,165.49,161.26,162.10,3806000
EOG,20140124,168.05,169.04,165.12,165.53,5645400
EOG,20140123,169.78,171.74,168.23,169.17,4482800
EOG,20140122,170.20,172.30,169.25,171.72,3588600
EOG,20140121,169.16,170.55,168.14,169.23,3195000
EOG,20140117,170.96,171.88,168.92,168.96,3325800
EOG,20140116,170.10,171.17,168.70,170.10,3342400
EOG,20140115,169.46,173.28,169.40,170.36,4088800
EOG,20140114,164.06,168.73,163.63,168.60,3221800
EOG,20140113,167.41,168.27,162.97,163.46,2672600
EOG,20140110,167.46,168.10,165.99,166.81,2949800
EOG,20140109,167.41,168.89,165.48,167.00,3539400
EOG,20140108,166.02,167.83,165.05,166.78,2857800
EOG,20140107,165.07,166.91,163.71,166.85,3286800
EOG,20140106,164.77,165.33,162.34,164.02,3649200
EOG,20140103,165.75,166.65,163.81,164.56,2693800
EOG,20140102,166.57,167.96,164.06,165.02,2943400
EOG,20131231,167.34,168.85,166.47,167.84,2109800
EOG,20131230,168.95,170.50,166.20,167.35,2811400
EOG,20131227,168.14,169.48,167.68,169.16,1685200
EOG,20131226,168.46,169.54,167.67,168.02,1772200
EOG,20131224,167.82,168.27,166.23,168.26,978200
EOG,20131223,169.26,169.84,166.83,167.62,3028000
EOG,20131220,166.12,169.32,165.45,168.52,6265800
EOG,20131219,161.67,165.91,161.18,165.33,5073600
EOG,20131218,159.64,162.38,158.33,162.00,5965400
EOG,20131217,160.52,160.52,157.51,159.65,3471800
EOG,20131216,159.34,161.97,159.34,159.74,4120200
EOG,20131213,157.67,159.35,156.49,159.02,4488600
EOG,20131212,156.43,159.32,156.24,158.36,3813000
EOG,20131211,158.85,159.14,156.01,156.26,4240000
EOG,20131210,158.43,161.94,158.14,159.31,4554400
EOG,20131209,160.92,161.25,156.31,158.14,8547400
EOG,20131206,166.95,167.10,159.89,160.04,7343200
EOG,20131205,165.34,167.74,164.16,165.38,4473800
EOG,20131204,165.60,169.11,165.50,167.13,3751400
EOG,20131203,164.45,166.73,161.82,165.48,4163800
EOG,20131202,166.00,166.55,163.13,165.00,3034400
EOG,20131129,166.50,167.11,164.19,165.00,2248400
EOG,20131127,168.93,169.69,165.52,166.43,3360200
EOG,20131126,169.35,171.48,167.70,169.20,3180400
EOG,20131125,169.32,169.37,165.67,169.19,3777800
EOG,20131122,170.20,170.41,167.35,170.15,2536600
EOG,20131121,168.12,169.96,167.80,169.31,3079200
EOG,20131120,168.85,169.76,166.21,166.92,3010600
EOG,20131119,168.12,169.47,165.65,167.89,3115400
EOG,20131118,171.50,172.20,167.47,168.52,3032000
EOG,20131115,170.28,172.14,167.88,171.38,4322400
EOG,20131114,169.49,170.08,167.95,169.67,3690600
EOG,20131113,166.44,169.86,165.79,169.46,4713200
EOG,20131112,170.70,171.08,165.80,167.10,4579200
EOG,20131111,171.21,171.64,169.63,171.45,3293200
EOG,20131108,171.12,173.26,170.56,170.96,5577800
EOG,20131107,179.31,180.24,165.05,171.58,9039000
EOG,20131106,181.33,182.90,175.94,176.64,4666800
EOG,20131105,183.34,183.34,179.52,179.73,3686200
EOG,20131104,180.47,183.60,179.73,183.46,2737200
EOG,20131101,178.61,180.03,175.40,178.98,3633200
EOG,20131031,179.98,180.91,176.71,178.40,3954400
EOG,20131030,186.32,186.85,178.89,180.33,3915000
EOG,20131029,182.87,185.77,182.31,185.08,2861800
EOG,20131028,183.83,183.90,181.88,182.42,1835000
EOG,20131025,182.35,184.09,181.29,183.44,2583800
EOG,20131024,178.06,182.57,176.11,181.43,4082000
EOG,20131023,183.12,183.12,176.51,178.44,5441400
EOG,20131022,186.79,188.30,183.58,185.15,3930000
EOG,20131021,183.00,185.50,182.65,184.32,2405000
EOG,20131018,182.66,184.17,180.84,183.79,4302000
EOG,20131017,181.68,182.40,179.30,181.39,4643400
EOG,20131016,182.48,185.87,181.47,182.29,4577200
EOG,20131015,180.25,181.98,179.00,179.97,3037000
EOG,20131014,177.36,181.08,176.33,181.06,2461200
EOG,20131011,174.32,180.95,174.25,178.99,3899800
EOG,20131010,173.39,174.94,172.94,174.86,3032600
EOG,20131009,172.33,173.56,169.60,171.52,3839600
EOG,20131008,172.34,174.65,170.41,171.46,3545000
EOG,20131007,172.21,174.21,171.25,172.83,3423800
EOG,20131004,171.92,174.86,170.54,174.59,3206400
EOG,20131003,171.95,172.23,169.99,171.80,2515400
EOG,20131002,171.87,172.36,169.18,172.36,2717600
EOG,20131001,168.61,172.83,168.55,172.15,2809200
EOG,20130930,167.56,170.34,167.12,169.28,2593800
EOG,20130927,171.23,171.66,169.80,170.73,1660600
EOG,20130926,171.72,172.17,169.82,172.09,1933600
EOG,20130925,172.09,173.29,170.73,171.38,3507400
EOG,20130924,169.41,173.92,168.62,172.09,4233600
EOG,20130923,168.57,169.71,168.11,168.86,2652000
EOG,20130920,170.50,171.53,168.53,168.87,3677400
EOG,20130919,172.10,172.81,169.35,170.73,2122000
EOG,20130918,167.26,172.36,167.20,171.79,2870200
EOG,20130917,166.51,168.36,165.79,167.77,2069800
EOG,20130916,167.54,167.99,165.08,165.80,2466600
EOG,20130913,167.75,168.14,166.10,166.44,2089400
EOG,20130912,167.54,168.77,167.00,167.99,3130200
EOG,20130911,163.45,167.37,162.84,167.15,3613400
EOG,20130910,163.50,164.72,160.93,163.50,3420600
EOG,20130909,163.10,164.00,162.17,163.65,3747000
EOG,20130906,162.57,164.33,160.58,161.72,3772400
EOG,20130905,161.22,162.62,160.95,161.43,1967800
EOG,20130904,157.49,161.01,157.49,160.53,2611800
EOG,20130903,159.46,160.49,157.05,158.43,2207600
EOG,20130830,157.50,158.32,156.29,157.05,2166200
EOG,20130829,158.73,159.30,156.68,157.09,1990800
EOG,20130828,156.94,161.32,156.83,159.46,3517800
EOG,20130827,156.16,158.56,156.00,156.29,2267600
EOG,20130826,157.26,159.61,156.83,157.11,2204200
EOG,20130823,154.40,156.79,153.54,156.62,2084200
EOG,20130822,152.73,155.36,152.45,154.40,1463000
EOG,20130821,154.37,154.37,151.39,151.84,2361200
EOG,20130820,152.70,155.89,152.16,154.62,2395400
EOG,20130819,155.52,156.12,152.54,152.69,2752800
EOG,20130816,155.53,156.89,154.31,155.49,2502000
EOG,20130815,155.54,157.78,154.29,156.59,2551400
EOG,20130814,158.12,158.90,156.12,156.40,2548200
EOG,20130813,159.00,159.15,156.76,158.24,2282600
EOG,20130812,158.16,160.45,157.46,158.76,4004400
EOG,20130809,158.66,159.97,158.00,158.84,3664400
EOG,20130808,157.86,160.25,156.31,158.58,4722600
EOG,20130807,160.31,161.47,155.29,156.22,9410200
EOG,20130806,154.10,154.91,151.31,153.22,4948800
EOG,20130805,152.94,155.04,152.15,154.18,3574000
EOG,20130802,150.76,153.21,150.25,153.03,2813200
EOG,20130801,147.57,152.91,147.57,152.07,3991600
EOG,20130731,144.62,148.17,144.62,145.49,3469400
EOG,20130730,145.05,145.78,141.55,144.10,3268400
EOG,20130729,145.32,145.52,143.87,144.71,1627400
EOG,20130726,146.24,146.72,144.24,145.74,2974400
EOG,20130725,144.07,147.40,144.00,147.37,3925000
EOG,20130724,149.09,149.14,143.16,144.07,6075800
EOG,20130723,149.62,149.98,148.01,148.64,3264600
EOG,20130722,148.63,150.05,147.54,149.49,3240800
EOG,20130719,147.81,148.70,146.51,148.67,2742200
EOG,20130718,146.42,148.27,146.22,147.00,3070600
EOG,20130717,145.05,146.42,144.65,145.83,2746000
EOG,20130716,143.78,145.54,143.75,144.56,3735400
EOG,20130715,144.63,145.62,142.59,143.54,3459200
EOG,20130712,143.10,144.77,141.91,144.71,3772200
EOG,20130711,144.00,146.79,142.89,143.55,5601400
EOG,20130710,142.69,143.68,141.63,142.27,3534000
EOG,20130709,140.95,142.47,140.39,142.22,3547400
EOG,20130708,141.50,142.53,139.01,139.76,3429400
EOG,20130705,139.06,140.64,138.63,140.40,2281000
EOG,20130703,138.00,138.50,136.81,138.18,1707400
EOG,20130702,135.24,139.27,135.24,137.88,4339200
EOG,20130701,133.79,136.43,133.24,135.31,3230400
EOG,20130628,130.43,132.99,130.02,131.68,3424400
EOG,20130627,133.16,134.08,130.72,131.01,3610800
EOG,20130626,131.19,132.55,129.53,131.85,2504600
EOG,20130625,129.02,131.10,128.22,130.15,3441000
EOG,20130624,128.89,129.46,124.53,127.41,3962200
EOG,20130621,132.24,132.40,128.57,130.40,4786600
EOG,20130620,133.72,133.89,129.79,130.99,4397600
EOG,20130619,134.97,137.99,134.78,135.59,3409000
EOG,20130618,133.50,135.96,133.14,135.02,2800400
EOG,20130617,133.20,134.34,132.16,133.33,2379400
EOG,20130614,133.61,133.61,131.13,131.74,2687800
EOG,20130613,129.68,133.50,129.35,133.33,3135000
EOG,20130612,131.26,131.77,129.48,129.63,2709400
EOG,20130611,129.29,130.32,128.24,129.11,2794600
EOG,20130610,132.33,132.60,131.15,131.62,1533600
EOG,20130607,131.10,133.65,130.20,132.68,2235600
EOG,20130606,128.91,130.65,127.52,130.64,2992600
EOG,20130605,131.66,131.97,128.49,128.52,2890800
EOG,20130604,131.47,132.64,130.33,132.16,3553000
EOG,20130603,130.15,132.13,129.72,131.75,2904200
EOG,20130531,131.73,132.60,129.09,129.10,3438200
EOG,20130530,132.33,133.94,130.90,132.69,2435200
EOG,20130529,130.34,133.42,130.12,132.83,3149600
EOG,20130528,132.46,133.25,129.51,131.12,3505800
EOG,20130524,129.73,130.95,128.63,130.83,2411000
EOG,20130523,128.97,131.64,128.23,131.40,3610600
EOG,20130522,134.16,135.53,129.82,130.93,4040000
EOG,20130521,135.78,136.27,134.05,134.28,2490200
EOG,20130520,135.37,137.15,134.87,135.61,4074400
EOG,20130517,133.80,135.89,133.51,135.25,5239200
EOG,20130516,134.51,134.92,132.74,133.22,3958800
EOG,20130515,136.49,137.64,134.05,134.69,4216200
EOG,20130514,134.00,136.97,133.82,136.67,3957800
EOG,20130513,132.82,134.54,132.31,133.66,3208800
EOG,20130510,135.49,135.49,131.70,133.58,4896400
EOG,20130509,138.81,139.00,135.53,136.08,5611400
EOG,20130508,136.04,138.78,135.92,137.90,6426200
EOG,20130507,133.79,137.96,132.96,135.69,10445000
EOG,20130506,124.60,126.73,123.26,126.04,5604800
EOG,20130503,121.40,124.20,121.40,123.98,4339000
EOG,20130502,119.25,120.26,118.00,119.67,3080400
EOG,20130501,120.39,120.39,117.76,118.83,3678600
EOG,20130430,121.80,122.74,120.59,121.16,3567800
EOG,20130429,120.50,122.72,119.88,121.93,2326800
EOG,20130426,121.70,121.91,119.00,119.12,4676200
EOG,20130425,120.16,123.53,119.36,121.86,4523000
EOG,20130424,117.04,120.45,117.00,119.93,3838000
EOG,20130423,116.90,117.38,115.27,117.00,4435600
EOG,20130422,113.95,116.82,113.51,116.40,4329000
EOG,20130419,116.16,116.28,112.93,113.44,4954200
EOG,20130418,115.39,115.96,112.05,115.31,6903800
EOG,20130417,117.41,117.86,113.46,114.82,6131200
EOG,20130416,117.83,119.64,115.82,119.15,4537000
EOG,20130415,122.36,122.37,116.13,116.19,5775400
EOG,20130412,127.30,127.80,124.01,124.13,4050600
EOG,20130411,129.01,129.66,127.72,128.26,2956800
EOG,20130410,128.56,130.20,128.48,128.62,2723000
EOG,20130409,127.07,129.21,126.20,128.25,2289400
EOG,20130408,124.89,127.22,124.53,126.89,2525200
EOG,20130405,121.00,124.87,120.76,124.75,4256400
EOG,20130404,126.07,126.07,122.63,122.86,4745800
EOG,20130403,129.05,129.42,125.75,126.10,3335400
EOG,20130402,128.80,130.05,128.04,129.05,3105200
EOG,20130401,128.07,128.83,126.63,128.51,2257400
EOG,20130328,128.17,129.15,127.43,128.07,3039400
EOG,20130327,127.89,128.67,126.19,128.20,3713800
EOG,20130326,124.48,129.39,124.37,128.90,4865200
EOG,20130325,125.77,126.80,123.03,123.92,3087000
EOG,20130322,124.44,125.07,123.62,124.98,2790400
EOG,20130321,125.27,126.85,123.85,123.90,4030200
EOG,20130320,128.36,128.80,126.17,126.24,3784800
EOG,20130319,129.10,129.52,126.71,127.27,2513600
EOG,20130318,128.91,130.42,128.32,128.93,2773400
EOG,20130315,131.47,132.84,130.41,130.42,4972200
EOG,20130314,130.49,132.01,130.27,131.83,2847800
EOG,20130313,130.00,131.18,129.49,129.88,2634800
EOG,20130312,129.50,130.40,129.12,130.08,2585600
EOG,20130311,128.33,129.37,127.41,128.66,2084000
EOG,20130308,128.19,128.92,127.49,128.68,2449200
EOG,20130307,125.75,128.23,125.37,127.56,2442600
EOG,20130306,125.18,125.95,124.32,125.60,4088800
EOG,20130305,123.08,125.05,122.42,124.70,3915600
EOG,20130304,122.78,122.88,121.00,121.79,3752200
EOG,20130301,124.64,125.35,122.23,123.00,5727000
EOG,20130228,126.44,127.96,125.60,125.71,4326200
EOG,20130227,123.11,127.13,122.77,126.92,4719000
EOG,20130226,122.37,123.85,120.76,123.50,3928600
EOG,20130225,125.67,126.96,121.65,121.77,5190600
EOG,20130222,125.00,125.84,123.69,125.34,4546200
EOG,20130221,126.49,127.06,123.55,124.04,5828200
EOG,20130220,131.43,131.74,127.32,127.39,4943600
EOG,20130219,130.56,131.58,130.04,131.40,3935400
EOG,20130215,133.26,134.00,127.78,129.19,6343200
EOG,20130214,138.07,138.20,133.08,133.33,5912000
EOG,20130213,134.10,134.40,132.70,133.60,3178000
EOG,20130212,133.50,134.69,132.80,134.10,3462400
EOG,20130211,133.29,133.68,132.12,133.34,3396200
EOG,20130208,130.14,133.39,130.14,133.28,3602200
EOG,20130207,129.72,130.11,128.05,129.77,2315800
EOG,20130206,127.73,129.92,127.53,129.67,1729400
EOG,20130205,128.65,129.27,127.90,128.82,2044400
EOG,20130204,127.67,127.79,126.60,127.29,2681200
EOG,20130201,126.64,128.79,124.99,128.60,3367000
EOG,20130131,125.50,125.97,124.50,124.98,3528000
EOG,20130130,127.17,129.43,126.17,126.32,3195000
EOG,20130129,124.66,127.19,124.01,126.94,2821400
EOG,20130128,125.81,125.81,123.55,124.20,2718400
EOG,20130125,125.37,126.54,124.54,125.27,2365000
EOG,20130124,124.90,126.40,124.79,124.99,2724000
EOG,20130123,126.16,126.59,124.50,124.75,2282000
EOG,20130122,126.95,127.34,124.90,126.50,3831400
EOG,20130118,126.34,127.08,125.22,126.79,3532800
EOG,20130117,126.00,126.55,124.89,126.03,3449000
EOG,20130116,124.83,125.50,124.39,125.37,3009800
EOG,20130115,124.01,125.50,123.75,125.10,3347000
EOG,20130114,125.65,126.28,124.23,124.66,2046800
EOG,20130111,126.06,126.45,125.00,125.63,2264600
EOG,20130110,125.40,126.13,124.56,126.10,2277000
EOG,20130109,124.36,125.17,123.69,124.63,1755200
EOG,20130108,125.75,125.99,123.18,124.14,3122400
EOG,20130107,125.21,126.10,124.15,125.99,2857800
EOG,20130104,124.23,126.25,123.95,125.80,2518600
EOG,20130103,123.49,125.49,122.47,124.18,2928400
EOG,20130102,123.40,123.68,121.44,123.68,3665200
EOG,20121231,118.11,120.98,118.00,120.79,3561800
EOG,20121228,120.56,120.93,118.50,118.61,2196200
EOG,20121227,121.98,122.15,119.56,121.63,3196600
EOG,20121226,123.14,123.15,121.22,121.55,2096400
EOG,20121224,123.11,124.20,122.68,122.77,1560800
EOG,20121221,122.42,124.16,121.88,123.57,4666400
EOG,20121220,122.79,124.50,122.40,124.37,3053600
EOG,20121219,123.60,124.02,122.44,122.45,3038800
EOG,20121218,121.08,124.25,121.00,123.92,3696200
EOG,20121217,119.39,120.98,118.78,120.97,2499600
EOG,20121214,118.38,119.80,118.04,118.99,2401800
EOG,20121213,120.31,120.65,118.35,118.51,3789200
EOG,20121212,119.20,121.37,118.72,120.74,3622600
EOG,20121211,118.32,119.50,117.97,118.73,2716000
EOG,20121210,117.20,117.86,116.57,117.73,2132400
EOG,20121207,118.71,118.71,116.93,117.35,2670400
EOG,20121206,118.29,118.75,117.00,118.36,2416600
EOG,20121205,117.50,119.55,117.34,118.72,3441200
EOG,20121204,116.94,118.00,116.69,117.18,1801400
EOG,20121203,118.24,119.10,117.13,117.24,2572400
EOG,20121130,117.40,118.41,117.05,117.62,2897200
EOG,20121129,117.60,118.42,116.81,117.64,2838000
EOG,20121128,114.09,116.59,112.72,116.35,3223200
EOG,20121127,115.54,116.06,114.44,115.08,5118400
EOG,20121126,117.45,117.83,115.60,116.65,2502400
EOG,20121123,118.50,119.15,117.65,118.99,1168800
EOG,20121121,117.79,118.54,117.40,118.14,2230200
EOG,20121120,118.39,118.54,116.55,117.40,2629400
EOG,20121119,118.21,120.80,117.82,118.61,3986000
EOG,20121116,117.25,117.46,114.79,116.67,5257800
EOG,20121115,113.44,116.55,113.32,116.16,4758000
EOG,20121114,115.38,115.90,113.00,113.36,3100000
EOG,20121113,113.90,117.14,113.69,115.28,3884800
EOG,20121112,115.09,115.60,113.44,114.76,2177600
EOG,20121109,115.63,116.77,114.45,114.52,4984600
EOG,20121108,119.87,120.77,115.71,115.77,4513600
EOG,20121107,120.00,120.95,119.33,120.00,6031800
EOG,20121106,123.39,124.49,121.30,121.98,8548400
EOG,20121105,114.55,117.07,114.55,116.81,4379000
EOG,20121102,117.77,118.51,114.69,115.20,5006800
EOG,20121101,116.49,118.60,116.04,116.88,3662000
EOG,20121031,114.25,116.57,114.24,116.49,4601800
EOG,20121026,112.29,114.50,112.01,114.09,4463600
EOG,20121025,112.05,112.44,110.91,112.42,2301600
EOG,20121024,110.88,111.54,109.77,110.70,3774200
EOG,20121023,110.07,110.90,109.03,110.16,4001000
EOG,20121022,112.78,112.94,110.43,112.11,3717400
EOG,20121019,114.53,115.45,112.57,113.07,3024000
EOG,20121018,114.54,115.08,113.74,114.75,2171600
EOG,20121017,114.54,115.65,113.57,115.24,2874200
EOG,20121016,111.71,113.89,111.51,113.74,3286200
EOG,20121015,108.66,110.58,107.76,110.25,2979000
EOG,20121012,109.97,110.31,107.87,108.78,2558200
EOG,20121011,110.41,111.27,109.60,109.83,1995000
EOG,20121010,110.85,111.35,109.19,109.50,2658400
EOG,20121009,109.91,111.80,109.28,111.05,2638800
EOG,20121008,108.86,109.97,108.64,109.82,2263000
EOG,20121005,111.51,112.40,109.50,109.91,3295800
EOG,20121004,111.93,112.25,110.65,111.42,4041200
EOG,20121003,114.83,115.00,110.80,111.08,4238000
EOG,20121002,114.79,115.28,113.87,115.14,3617200
EOG,20121001,112.99,114.69,112.91,114.19,3422000
EOG,20120928,112.60,113.00,111.14,112.05,2295400
EOG,20120927,111.76,113.77,111.50,113.20,1953800
EOG,20120926,111.87,112.08,110.40,110.60,2732400
EOG,20120925,113.70,114.41,112.26,112.42,3068400
EOG,20120924,112.60,113.74,112.16,113.21,2492600
EOG,20120921,114.57,114.74,113.25,113.95,4015200
EOG,20120920,112.91,114.08,111.49,113.55,4148000
EOG,20120919,115.66,115.79,113.50,113.57,3288000
EOG,20120918,116.23,116.82,114.57,115.88,2282400
EOG,20120917,117.41,118.23,115.88,116.40,2922200
EOG,20120914,115.74,119.69,115.74,117.62,3856600
EOG,20120913,113.43,116.12,111.80,115.18,3997000
EOG,20120912,112.85,113.94,111.59,112.98,3305000
EOG,20120911,112.81,113.46,111.93,112.43,3332600
EOG,20120910,113.00,114.47,112.09,112.40,3535000
EOG,20120907,110.95,113.28,110.73,112.88,4704400
EOG,20120906,109.82,113.21,109.60,112.41,4160800
EOG,20120905,109.08,109.51,108.45,108.54,3174200
EOG,20120904,108.26,109.75,107.19,109.32,4144200
EOG,20120831,106.99,108.61,106.10,108.30,3420200
EOG,20120830,107.45,107.45,105.45,105.89,2562800
EOG,20120829,108.88,108.98,107.47,108.05,2580200
EOG,20120828,109.24,109.92,108.04,108.82,3514600
EOG,20120827,108.98,109.96,108.16,109.17,2816200
EOG,20120824,106.96,109.18,106.57,108.91,4370400
EOG,20120823,108.75,109.18,106.44,107.01,2864600
EOG,20120822,108.55,109.20,107.10,108.91,3105400
EOG,20120821,110.28,110.85,108.27,108.77,3073800
EOG,20120820,111.51,111.56,109.17,109.57,2584200
EOG,20120817,110.50,111.36,110.10,111.19,2636600
EOG,20120816,109.76,111.08,109.40,110.99,3037200
EOG,20120815,109.68,110.73,108.97,109.82,2989200
EOG,20120814,110.26,111.11,109.71,110.35,3886600
EOG,20120813,110.90,110.90,108.82,109.30,2663200
EOG,20120810,108.11,110.36,108.00,109.99,3002200
EOG,20120809,107.53,110.80,107.43,109.41,4150800
EOG,20120808,107.42,109.06,107.41,107.90,3798400
EOG,20120807,105.73,109.50,105.57,108.74,4976200
EOG,20120806,106.97,107.33,105.51,105.74,5040200
EOG,20120803,103.06,108.75,102.14,106.75,10517400
EOG,20120802,98.13,99.13,95.28,96.12,4967400
EOG,20120801,98.93,101.19,97.04,100.45,4492600
EOG,20120731,99.42,99.90,97.95,98.01,3237800
EOG,20120730,100.68,101.62,98.43,99.56,3378400
EOG,20120727,97.97,101.47,97.45,101.01,4790200
EOG,20120726,97.34,98.58,96.26,97.42,4041800
EOG,20120725,96.49,96.73,94.21,95.69,3024400
EOG,20120724,97.29,97.90,94.41,95.50,3716000
EOG,20120723,96.63,97.48,94.23,97.20,6470400
EOG,20120720,97.47,99.29,96.25,99.23,5496200
EOG,20120719,97.19,98.63,96.77,98.25,6149800
EOG,20120718,94.85,97.43,94.55,96.70,5117400
EOG,20120717,94.18,95.43,92.33,95.24,5095000
EOG,20120716,92.43,93.84,91.29,93.24,3599000
EOG,20120713,91.37,93.08,91.20,92.93,3690400
EOG,20120712,90.16,91.84,89.09,91.05,5869600
EOG,20120711,89.71,92.62,89.71,91.88,5386200
EOG,20120710,91.47,91.96,88.75,89.35,4704200
EOG,20120709,90.41,92.87,90.19,91.49,4715000
EOG,20120706,89.77,91.35,89.07,90.64,3424200
EOG,20120705,94.08,94.50,91.76,92.00,4101600
EOG,20120703,90.00,95.00,90.00,94.89,5677200
EOG,20120702,89.54,89.94,87.54,88.94,3431400
EOG,20120629,87.95,90.26,87.57,90.11,9941400
EOG,20120628,85.20,85.84,83.89,85.16,8044200
EOG,20120627,84.25,86.17,84.08,85.73,10073800
EOG,20120626,84.92,85.56,82.48,83.96,7419800
EOG,20120625,85.69,85.88,83.66,84.90,6179200
EOG,20120622,87.69,87.97,85.87,87.62,6630400
EOG,20120621,92.85,93.27,86.34,86.48,11919000
EOG,20120620,96.14,96.77,92.14,92.94,6199000
EOG,20120619,95.69,96.32,94.58,95.95,4502200
EOG,20120618,96.03,96.17,94.36,94.73,4492600
EOG,20120615,94.89,96.78,93.91,96.64,5798600
EOG,20120614,92.90,94.95,92.22,94.46,5099200
EOG,20120613,93.79,95.23,92.02,92.70,4524600
EOG,20120612,92.61,94.37,92.23,94.17,3856800
EOG,20120611,95.35,96.10,91.80,91.93,4168200
EOG,20120608,93.82,94.13,91.76,93.88,4717600
EOG,20120607,96.58,97.40,94.41,95.45,6559000
EOG,20120606,93.04,94.96,92.83,94.92,5499000
EOG,20120605,89.61,92.23,89.57,91.87,6586000
EOG,20120604,91.96,92.17,88.85,90.40,10072600
EOG,20120601,95.88,96.14,91.34,91.67,13415000
EOG,20120531,100.75,100.85,96.40,99.30,7350600
EOG,20120530,103.34,103.34,99.90,100.99,5560600
EOG,20120529,104.45,105.32,103.16,104.86,4652600
EOG,20120525,100.56,102.43,100.56,101.75,3559600
EOG,20120524,102.00,102.39,99.14,100.79,3806200
EOG,20120523,100.29,101.79,97.78,101.70,5439800
EOG,20120522,101.59,103.47,100.47,101.33,5602000
EOG,20120521,97.33,100.26,97.29,100.20,4474000
EOG,20120518,97.89,98.62,95.78,96.31,4443200
EOG,20120517,98.91,99.32,97.16,97.34,3874400
EOG,20120516,99.66,101.60,98.55,98.95,3981400
EOG,20120515,100.99,101.70,98.64,99.21,3836800
EOG,20120514,102.90,102.90,100.88,101.04,3667400
EOG,20120511,105.48,106.55,103.91,104.23,4469800
EOG,20120510,106.74,107.33,105.51,106.51,5334600
EOG,20120509,103.81,105.68,100.76,105.10,7535400
EOG,20120508,103.62,104.19,100.41,103.99,4339600
EOG,20120507,104.47,105.85,103.29,104.77,3265000
EOG,20120504,106.40,107.20,104.38,105.29,4330600
EOG,20120503,109.00,109.94,107.22,107.71,3882200
EOG,20120502,109.90,109.90,108.22,109.28,4145600
EOG,20120501,110.30,112.24,109.80,111.23,3552800
EOG,20120430,108.88,109.94,107.84,109.81,3000800
EOG,20120427,109.01,109.24,108.10,109.02,4275000
EOG,20120426,106.42,108.88,106.01,108.52,4686400
EOG,20120425,105.38,106.51,104.59,106.43,5718200
EOG,20120424,104.11,104.93,103.40,104.45,4512400
EOG,20120423,100.61,103.77,100.59,103.60,3771600
EOG,20120420,104.89,105.50,102.79,103.03,3376600
EOG,20120419,104.30,105.29,103.31,103.96,3121600
EOG,20120418,104.39,104.98,103.57,104.17,3813400
EOG,20120417,103.92,105.31,103.53,104.80,4108400
EOG,20120416,103.86,105.12,101.83,102.77,3074000
EOG,20120413,104.73,105.30,103.10,103.33,3018600
EOG,20120412,103.00,105.65,102.94,105.22,6345200
EOG,20120411,105.18,105.52,102.51,102.95,6017200
EOG,20120410,107.44,107.72,103.81,104.00,6604200
EOG,20120409,106.95,108.03,106.61,107.44,5445200
EOG,20120405,110.12,111.47,108.85,109.18,4629800
EOG,20120404,112.06,112.39,109.70,110.52,3127600
EOG,20120403,112.63,113.70,112.17,113.56,4647400
EOG,20120402,110.99,114.33,110.32,113.35,3899200
EOG,20120330,109.48,111.48,108.76,111.10,3541200
EOG,20120329,108.49,109.26,107.15,109.02,2885200
EOG,20120328,110.74,110.95,108.50,109.63,3495600
EOG,20120327,112.46,112.53,110.92,111.28,2920800
EOG,20120326,112.76,113.20,111.61,112.16,2741400
EOG,20120323,110.48,112.65,110.16,111.73,4599000
EOG,20120322,112.36,113.14,109.86,110.35,4562200
EOG,20120321,114.71,115.10,113.07,113.81,3303400
EOG,20120320,116.14,116.14,114.15,114.71,3449600
EOG,20120319,116.65,117.97,116.11,117.39,3386200
EOG,20120316,116.36,117.87,115.79,116.78,5474600
EOG,20120315,114.84,116.27,114.05,115.63,3907200
EOG,20120314,116.81,116.95,114.08,114.68,3395400
EOG,20120313,113.85,116.94,113.02,116.85,5206400
EOG,20120312,115.24,115.24,112.52,113.73,2890600
EOG,20120309,114.50,115.75,114.06,114.98,2713400
EOG,20120308,114.72,115.32,113.32,114.41,3130000
EOG,20120307,112.72,113.67,112.03,113.14,3895400
EOG,20120306,111.12,112.81,110.22,112.72,5257800
EOG,20120305,113.51,113.62,111.36,113.20,3162600
EOG,20120302,116.40,116.78,113.08,113.90,4699200
EOG,20120301,114.25,117.01,114.25,116.91,5143200
EOG,20120229,116.73,117.20,113.38,113.86,6444600
EOG,20120228,115.92,117.20,115.50,116.61,4872000
EOG,20120227,117.33,117.80,115.62,115.62,4582600
EOG,20120224,116.66,118.08,116.19,117.55,3351800
EOG,20120223,115.85,116.60,114.50,116.50,4004000
EOG,20120222,115.96,117.51,115.57,115.66,5726800
EOG,20120221,115.98,116.99,114.99,115.65,6828600
EOG,20120217,119.07,119.97,113.49,114.35,12338800
EOG,20120216,114.99,118.81,114.53,117.62,6609800
EOG,20120215,114.50,115.90,113.35,114.84,5980600
EOG,20120214,113.16,113.82,112.37,113.75,4835800
EOG,20120213,112.54,113.65,112.18,113.38,3973600
EOG,20120210,110.77,111.83,110.16,111.83,3686800
EOG,20120209,111.05,113.66,110.88,112.45,3964600
EOG,20120208,111.44,111.69,109.55,111.42,3084400
EOG,20120207,110.00,111.50,109.05,111.13,3658800
EOG,20120206,109.47,110.55,108.77,110.06,6138400
EOG,20120203,108.03,110.12,107.10,109.09,4429800
EOG,20120202,105.65,108.13,104.96,106.48,4281400
EOG,20120201,106.95,106.98,104.68,105.90,6657200
EOG,20120131,105.57,106.27,104.70,106.14,5577800
EOG,20120130,103.01,105.43,102.17,105.31,4345600
EOG,20120127,104.33,105.26,103.49,104.12,3197800
EOG,20120126,107.29,107.50,104.23,104.75,4547600
EOG,20120125,104.28,107.20,103.02,106.81,4330400
EOG,20120124,104.63,104.89,103.50,104.55,3867200
EOG,20120123,104.83,106.63,104.37,105.60,5463000
EOG,20120120,104.87,104.97,102.44,103.16,5567800
EOG,20120119,105.69,106.53,104.68,105.08,5439600
EOG,20120118,103.62,105.82,102.81,105.37,3217000
EOG,20120117,104.70,105.11,102.66,103.72,3053600
EOG,20120113,102.67,103.45,101.43,103.04,3482800
EOG,20120112,103.63,104.70,102.54,103.88,4658400
EOG,20120111,104.78,105.49,102.95,103.17,4476000
EOG,20120110,105.39,107.27,104.90,105.52,6240000
EOG,20120109,102.47,103.06,101.50,102.17,3525600
EOG,20120106,102.25,103.77,102.00,102.43,4493000
EOG,20120105,101.15,102.51,99.82,102.15,5075000
EOG,20120104,101.46,101.99,100.62,101.59,4909000
EOG,20120103,100.61,102.13,100.40,101.45,5597400
EOG,20111230,98.05,99.10,97.79,98.51,2569800
EOG,20111229,96.37,98.18,96.37,98.05,2686600
EOG,20111228,99.23,99.49,96.12,96.44,3013400
EOG,20111227,98.39,99.74,98.10,99.01,3238200
EOG,20111223,98.48,99.13,97.23,98.27,3113600
EOG,20111222,98.22,98.64,97.94,98.33,5866400
EOG,20111221,98.25,98.69,96.52,98.18,4880600
EOG,20111220,97.84,99.19,97.35,97.97,4700800
EOG,20111219,97.51,97.73,95.20,95.57,3772400
EOG,20111216,95.43,97.90,94.74,97.68,7302000
EOG,20111215,94.56,95.56,93.01,94.44,6036000
EOG,20111214,96.98,97.06,93.11,93.17,9268200
EOG,20111213,101.76,103.13,97.16,98.50,5826000
EOG,20111212,102.09,102.26,99.15,101.05,4360000
EOG,20111209,100.47,104.42,100.47,103.75,5692400
EOG,20111208,102.54,104.58,100.13,100.63,4964600
EOG,20111207,104.11,104.29,101.66,103.03,4165800
EOG,20111206,102.46,106.20,102.08,104.89,4272200
EOG,20111205,103.99,104.86,101.23,102.11,5158000
EOG,20111202,103.79,104.00,102.12,102.56,3256000
EOG,20111201,103.63,104.99,101.69,102.53,3870200
EOG,20111130,102.04,104.41,102.04,103.74,7282400
EOG,20111129,96.27,98.92,96.01,98.23,5018400
EOG,20111128,93.99,96.79,93.86,95.59,3889800
EOG,20111125,90.85,92.84,90.77,90.87,1223400
EOG,20111123,93.61,93.89,91.39,91.61,4856000
EOG,20111122,95.58,96.31,93.64,94.98,3498800
EOG,20111121,95.71,96.65,94.05,96.01,2933000
EOG,20111118,98.37,99.86,96.03,97.84,4463200
EOG,20111117,100.40,101.30,96.16,97.02,5014400
EOG,20111116,101.94,103.41,100.54,100.69,8456600
EOG,20111115,103.33,103.92,102.00,102.36,3845400
EOG,20111114,102.94,104.47,101.30,103.77,5572800
EOG,20111111,101.21,104.05,101.17,104.01,4880000
EOG,20111110,99.41,100.77,98.43,100.04,4688400
EOG,20111109,99.44,100.66,98.00,98.23,5810000
EOG,20111108,101.75,102.24,99.45,101.91,4995600
EOG,20111107,101.48,102.40,99.73,101.17,5557800
EOG,20111104,98.84,102.52,98.28,101.68,7401600
EOG,20111103,97.58,100.61,96.19,100.03,9132800
EOG,20111102,90.72,97.82,90.13,96.04,16995200
EOG,20111101,85.99,87.00,83.88,85.88,7520600
EOG,20111031,93.39,93.50,89.30,89.43,5455200
EOG,20111028,91.64,95.26,91.63,95.18,6090000
EOG,20111027,91.00,94.00,89.83,92.84,7409200
EOG,20111026,88.98,89.27,86.34,87.42,7715600
EOG,20111025,91.08,91.08,87.25,87.52,6034200
EOG,20111024,91.11,91.81,90.24,91.08,6153600
EOG,20111021,88.96,91.08,88.21,90.62,5544800
EOG,20111020,87.51,88.04,85.09,87.34,6293400
EOG,20111019,85.66,89.18,85.51,87.87,8468200
EOG,20111018,81.52,86.61,80.23,86.02,7436200
EOG,20111017,83.30,84.10,81.12,81.41,3861600
EOG,20111014,82.09,84.07,81.71,83.98,4630600
EOG,20111013,80.02,80.53,77.64,80.22,4819000
EOG,20111012,80.80,82.69,80.30,80.95,4541200
EOG,20111011,78.64,80.49,77.97,80.14,6092600
EOG,20111010,76.84,79.45,76.74,79.41,5093800
EOG,20111007,79.05,79.23,74.73,74.90,6520600
EOG,20111006,76.37,78.91,75.51,78.54,5830000
EOG,20111005,73.71,76.95,73.22,76.80,7513400
EOG,20111004,67.34,74.03,66.81,73.66,12197400
EOG,20111003,70.14,70.24,67.79,68.41,9832600
EOG,20110930,71.39,72.76,69.55,71.01,7677800
EOG,20110929,76.03,76.36,71.88,73.78,6866600
EOG,20110928,78.73,78.80,74.14,74.29,4861000
EOG,20110927,78.65,80.52,78.04,78.61,6291800
EOG,20110926,75.26,76.79,73.14,76.68,7592000
EOG,20110923,75.36,77.17,73.35,73.72,7707800
EOG,20110922,80.83,80.93,75.13,76.75,10625000
EOG,20110921,86.97,88.31,83.41,83.43,4491200
EOG,20110920,88.21,89.55,86.87,87.12,3761600
EOG,20110919,88.12,88.62,85.96,87.76,3672000
EOG,20110916,91.13,91.25,89.25,90.16,5116800
EOG,20110915,88.87,90.40,88.12,90.40,3907000
EOG,20110914,85.86,88.86,85.10,87.75,4477600
EOG,20110913,86.43,87.42,85.32,86.75,3189600
EOG,20110912,84.53,86.16,83.92,86.11,4431800
EOG,20110909,87.31,88.28,84.91,85.32,5251200
EOG,20110908,89.62,91.97,88.77,89.25,4854600
EOG,20110907,88.48,90.85,88.10,90.67,3595000
EOG,20110906,85.74,87.11,84.93,86.96,5123200
EOG,20110902,89.35,90.19,87.82,88.35,4919600
EOG,20110901,93.32,94.16,91.29,91.42,3392800
EOG,20110831,92.98,94.17,91.44,92.59,5493600
EOG,20110830,91.10,92.75,89.75,92.20,3328600
EOG,20110829,91.22,91.68,89.81,91.55,4200600
EOG,20110826,87.74,90.16,86.00,89.85,4555800
EOG,20110825,90.62,91.23,87.53,88.26,5556200
EOG,20110824,88.35,90.03,87.84,89.92,4626000
EOG,20110823,86.32,89.00,85.58,88.97,7207200
EOG,20110822,89.90,90.50,85.85,86.35,6204800
EOG,20110819,86.62,89.77,86.50,87.57,6513600
EOG,20110818,91.66,91.66,86.85,87.63,7368400
EOG,20110817,95.27,97.05,93.02,94.00,4094600
EOG,20110816,95.00,95.70,93.11,94.58,5794800
EOG,20110815,95.19,96.48,94.63,96.29,5036000
EOG,20110812,96.78,97.83,93.14,94.15,7189600
EOG,20110811,87.96,94.28,86.95,93.14,9001200
EOG,20110810,90.51,91.08,86.68,86.99,11145200
EOG,20110809,90.28,91.90,86.10,90.86,14977600
EOG,20110808,93.60,93.81,87.06,88.60,11371400
EOG,20110805,98.27,101.22,93.40,95.92,18031400
EOG,20110804,96.51,96.51,91.45,92.13,8768800
EOG,20110803,99.27,99.33,95.57,97.98,6110800
EOG,20110802,100.86,102.37,99.08,99.21,4176600
EOG,20110801,103.89,104.32,100.49,101.62,3660800
EOG,20110729,102.18,103.36,101.50,102.00,6388800
EOG,20110728,104.04,105.33,103.07,103.43,4736800
EOG,20110727,106.00,106.02,103.97,104.07,4082000
EOG,20110726,106.21,107.88,104.62,106.57,4235200
EOG,20110725,105.20,107.46,104.80,106.21,3798400
EOG,20110722,105.55,106.60,105.01,106.57,3288400
EOG,20110721,104.64,105.90,104.09,105.56,3878600
EOG,20110720,104.81,104.81,103.53,103.81,4192600
EOG,20110719,102.00,104.28,102.00,104.03,4730200
EOG,20110718,101.39,102.59,100.48,101.52,5338400
EOG,20110715,100.00,102.12,99.74,101.19,13502400
EOG,20110714,99.46,99.58,96.40,96.71,5437800
EOG,20110713,99.51,101.09,98.58,98.94,3888000
EOG,20110712,98.84,100.11,98.53,98.89,3965800
EOG,20110711,100.44,100.44,98.57,99.01,3145200
EOG,20110708,101.98,102.62,101.16,101.92,3406200
EOG,20110707,103.67,104.01,102.44,103.55,3802200
EOG,20110706,103.04,103.32,101.75,102.27,2543800
EOG,20110705,103.31,104.99,102.95,103.24,2969800
EOG,20110701,104.37,104.56,102.39,103.08,6685000
EOG,20110630,103.55,104.83,103.24,104.55,3776600
EOG,20110629,102.63,104.16,101.59,103.10,3681200
EOG,20110628,100.60,102.79,99.99,102.41,3730000
EOG,20110627,97.40,100.43,97.21,100.33,5812400
EOG,20110624,100.08,100.41,98.07,98.27,3929200
EOG,20110623,99.06,100.24,96.62,100.16,5682800
EOG,20110622,101.73,103.40,101.22,101.34,5531800
EOG,20110621,101.51,103.18,101.23,102.19,4096800
EOG,20110620,101.51,101.91,100.22,100.90,5040400
EOG,20110617,102.41,102.99,100.71,102.25,5916000
EOG,20110616,102.56,103.55,101.25,101.61,5596400
EOG,20110615,104.15,105.33,102.25,102.87,5424200
EOG,20110614,106.26,106.98,104.62,105.03,5366400
EOG,20110613,107.99,108.56,103.65,104.71,5597000
EOG,20110610,110.00,110.46,107.57,107.67,3801000
EOG,20110609,109.56,111.17,109.03,110.78,3680400
EOG,20110608,108.12,110.86,108.12,108.94,3959800
EOG,20110607,109.51,110.04,108.02,108.05,4261000
EOG,20110606,110.54,112.04,109.03,109.06,5428800
EOG,20110603,109.35,111.79,107.80,110.56,4492400
EOG,20110602,108.41,111.71,108.41,110.91,6241000
EOG,20110601,109.51,111.67,107.96,108.19,6434800
EOG,20110531,110.01,110.19,107.10,109.14,3567400
EOG,20110527,107.88,109.08,107.39,108.15,2603400
EOG,20110526,106.70,107.50,105.39,107.23,2363800
EOG,20110525,105.50,107.92,105.50,107.20,3190400
EOG,20110524,105.17,107.09,104.85,106.06,4681400
EOG,20110523,105.10,105.60,103.97,104.25,3889000
EOG,20110520,106.07,107.94,104.88,106.85,4046400
EOG,20110519,106.97,107.22,105.07,105.99,3097000
EOG,20110518,105.89,107.47,105.50,106.62,3874200
EOG,20110517,104.13,106.18,103.77,105.61,3940800
EOG,20110516,105.17,107.71,104.23,104.70,3133600
EOG,20110513,105.82,106.80,104.41,105.44,3634800
EOG,20110512,105.46,106.91,104.13,105.52,4428600
EOG,20110511,110.45,110.68,106.00,106.69,4347000
EOG,20110510,111.42,111.78,109.78,110.85,3331600
EOG,20110509,110.23,111.90,109.50,111.32,4764600
EOG,20110506,109.00,111.36,106.13,107.44,7192600
EOG,20110505,104.26,105.43,101.84,104.35,6925400
EOG,20110504,107.76,107.76,104.84,106.28,3866600
EOG,20110503,110.69,110.70,107.23,108.15,4120400
EOG,20110502,113.48,113.80,110.47,110.94,3705000
EOG,20110429,111.85,113.55,111.08,113.05,2631200
EOG,20110428,111.61,113.05,110.33,111.98,3068000
EOG,20110427,112.01,112.20,109.19,111.76,2500400
EOG,20110426,110.74,111.77,109.98,111.72,2200000
EOG,20110425,111.99,112.19,109.73,110.34,1935800
EOG,20110421,111.33,112.28,110.60,111.87,2048000
EOG,20110420,111.33,112.01,110.45,111.82,3606400
EOG,20110419,109.91,110.39,108.49,109.47,3066000
EOG,20110418,109.71,110.40,107.84,109.87,3455800
EOG,20110415,110.85,111.87,109.56,111.04,3491400
EOG,20110414,109.70,111.29,108.70,110.72,3631600
EOG,20110413,110.09,112.19,109.64,110.61,3883000
EOG,20110412,111.53,111.53,108.16,109.23,5550400
EOG,20110411,114.56,114.98,111.86,112.67,2872000
EOG,20110408,115.46,116.39,113.80,114.66,3438800
EOG,20110407,114.53,115.68,112.76,114.66,4410400
EOG,20110406,117.73,117.96,114.76,114.81,4067400
EOG,20110405,118.04,118.74,116.63,116.92,3861200
EOG,20110404,118.90,119.82,118.07,118.37,3827600
EOG,20110401,119.17,119.30,117.82,118.39,8316600
EOG,20110331,119.24,120.10,118.42,118.51,5689400
EOG,20110330,120.30,121.44,118.36,119.19,7209400
EOG,20110329,117.51,119.76,115.80,119.67,6065400
EOG,20110328,116.77,119.71,116.34,118.44,6207200
EOG,20110325,115.82,118.13,114.76,117.54,5161000
EOG,20110324,114.91,115.70,113.02,115.55,5755800
EOG,20110323,113.43,114.07,112.00,114.07,8087600
EOG,20110322,112.34,114.43,112.01,113.36,6558200
EOG,20110321,109.49,111.46,109.00,111.40,4526000
EOG,20110318,109.76,110.45,107.04,107.93,5936600
EOG,20110317,106.77,109.16,105.87,108.68,4200000
EOG,20110316,105.80,107.51,103.07,104.49,5072200
EOG,20110315,103.28,106.48,102.65,105.44,4851800
EOG,20110314,105.07,107.10,104.13,106.53,3951200
EOG,20110311,102.61,106.55,102.00,105.65,3767200
EOG,20110310,104.53,104.53,102.41,102.83,5261800
EOG,20110309,106.14,107.63,105.20,105.80,3472400
EOG,20110308,108.54,108.90,106.07,106.20,3493200
EOG,20110307,110.24,111.39,108.18,108.58,3717000
EOG,20110304,110.81,111.58,108.39,109.38,4348800
EOG,20110303,109.31,111.27,107.98,111.09,6069800
EOG,20110302,105.85,108.95,104.38,108.69,15563600
EOG,20110301,109.50,112.19,107.87,107.93,9073000
EOG,20110228,112.09,113.24,111.55,112.31,3500200
EOG,20110225,110.70,112.49,110.04,111.75,3297800
EOG,20110224,114.59,115.17,109.80,110.17,7247000
EOG,20110223,108.51,114.74,108.51,114.39,8300000
EOG,20110222,109.86,111.63,108.09,108.32,5797800
EOG,20110218,106.84,109.80,106.81,108.89,7652200
EOG,20110217,103.28,104.58,102.34,104.22,6126400
EOG,20110216,104.07,105.35,102.94,102.99,4648400
EOG,20110215,104.79,106.19,103.16,103.55,4232000
EOG,20110214,103.35,106.53,103.35,104.90,4243000
EOG,20110211,103.83,104.51,103.05,103.30,3040400
EOG,20110210,103.47,104.69,103.09,104.24,3645600
EOG,20110209,104.30,105.32,102.76,103.95,3408200
EOG,20110208,105.82,105.82,103.55,104.76,4232000
EOG,20110207,107.36,108.47,105.44,105.59,3483600
EOG,20110204,107.30,107.49,105.71,106.78,3308400
EOG,20110203,106.89,107.24,105.62,107.05,1949000
EOG,20110202,107.01,108.29,106.34,107.24,2989600
EOG,20110201,106.72,108.27,105.85,107.38,4528000
EOG,20110131,102.74,106.58,102.74,106.39,4616000
EOG,20110128,103.37,105.15,102.17,102.53,5658800
EOG,20110127,101.91,104.14,101.73,103.25,5182200
EOG,20110126,100.38,102.94,100.25,102.28,4638400
EOG,20110125,101.58,101.58,98.94,99.87,3947600
EOG,20110124,101.35,102.13,100.61,101.73,3284600
EOG,20110121,101.99,102.58,100.50,101.72,4812000
EOG,20110120,99.78,101.49,99.23,101.36,4891600
EOG,20110119,102.85,103.00,100.77,101.44,5794800
EOG,20110118,100.83,103.21,100.33,102.88,6014600
EOG,20110114,97.80,100.71,97.25,100.58,4361200
EOG,20110113,98.23,98.58,97.04,97.86,3336400
EOG,20110112,97.49,99.32,96.93,98.49,5176800
EOG,20110111,95.44,96.87,94.78,96.73,5838400
EOG,20110110,94.15,95.00,93.82,94.95,5149600
EOG,20110107,93.26,94.35,92.91,94.26,4830200
EOG,20110106,93.35,94.43,92.30,92.82,5178400
EOG,20110105,91.26,92.99,90.84,92.33,3472600
EOG,20110104,93.08,93.28,91.39,92.14,4125400
EOG,20110103,92.45,93.50,92.27,92.35,3500800
EOG,20101231,91.65,92.12,91.31,91.41,2042400
EOG,20101230,91.22,92.06,90.87,91.75,2328400
EOG,20101229,90.47,91.54,89.97,91.19,2110200
EOG,20101228,90.51,90.65,89.92,89.98,2696200
EOG,20101227,91.25,91.43,89.53,90.12,2715800
EOG,20101223,90.59,92.06,90.31,91.45,4685800
EOG,20101222,91.91,92.57,91.46,92.20,1766800
EOG,20101221,91.73,92.45,91.09,91.65,1700000
EOG,20101220,91.87,92.00,89.88,91.46,4067000
EOG,20101217,90.41,91.80,90.08,91.67,4847000
EOG,20101216,90.17,90.71,89.76,90.51,2003800
EOG,20101215,91.35,92.19,89.85,90.12,3600800
EOG,20101214,90.82,92.09,90.18,91.65,3678000
EOG,20101213,91.50,92.50,90.59,90.70,4532800
EOG,20101210,91.93,92.43,90.73,90.75,3956000
EOG,20101209,92.35,93.41,91.77,92.23,4115200
EOG,20101208,93.17,93.53,91.41,92.20,2988600
EOG,20101207,95.55,96.07,92.43,92.71,4757200
EOG,20101206,93.55,94.70,93.51,94.38,2933400
EOG,20101203,93.46,94.00,92.78,93.74,3337800
EOG,20101202,91.53,93.99,91.53,93.86,3973200
EOG,20101201,90.49,91.72,89.56,91.63,4811200
EOG,20101130,88.42,89.87,88.01,88.95,4456400
EOG,20101129,88.64,89.63,87.61,89.22,3600200
EOG,20101126,88.97,89.80,88.84,88.92,924000
EOG,20101124,89.30,90.05,88.54,89.80,3512800
EOG,20101123,91.15,91.20,88.50,88.70,5899600
EOG,20101122,92.69,93.63,90.98,92.50,2544000
EOG,20101119,91.65,93.07,91.14,92.96,4420400
EOG,20101118,90.51,92.72,90.05,92.11,4851400
EOG,20101117,91.28,91.92,89.98,90.17,4036200
EOG,20101116,91.42,91.42,89.60,91.05,5232200
EOG,20101115,93.50,94.22,92.08,92.43,4264800
EOG,20101112,93.11,93.45,91.23,92.05,4709800
EOG,20101111,93.22,95.00,93.22,94.11,4416000
EOG,20101110,92.41,94.09,92.07,93.88,5630200
EOG,20101109,90.14,92.81,89.86,91.99,8864000
EOG,20101108,89.21,91.34,88.75,89.46,9334800
EOG,20101105,88.66,88.86,87.00,88.61,7278200
EOG,20101104,89.76,89.76,86.31,88.29,12523800
EOG,20101103,90.49,90.50,86.00,88.64,32201000
EOG,20101102,97.17,98.36,95.86,97.74,4069000
EOG,20101101,96.88,97.91,95.36,96.07,2844000
EOG,20101029,94.52,96.03,94.14,95.72,4066800
EOG,20101028,96.39,96.91,94.34,94.94,2881000
EOG,20101027,94.92,95.90,93.66,95.76,3506000
EOG,20101026,96.86,97.68,95.18,95.75,4025000
EOG,20101025,98.03,98.92,97.12,97.46,2669400
EOG,20101022,99.47,99.48,96.49,97.31,3956600
EOG,20101021,100.45,101.68,97.68,98.80,4220800
EOG,20101020,99.56,100.82,99.16,100.12,2897400
EOG,20101019,99.78,100.10,98.54,99.48,6010000
EOG,20101018,99.87,102.06,99.56,101.33,4470600
EOG,20101015,99.70,100.83,99.15,100.04,6134200
EOG,20101014,97.87,99.74,97.87,99.01,4141400
EOG,20101013,99.71,100.23,98.35,98.75,5705800
EOG,20101012,98.88,99.44,97.79,98.91,2613400
EOG,20101011,99.00,100.64,98.79,99.56,2612000
EOG,20101008,98.68,99.82,97.97,99.46,3355800
EOG,20101007,99.01,99.07,97.62,98.56,3866000
EOG,20101006,97.27,99.43,97.19,98.52,4737400
EOG,20101005,96.76,97.76,95.43,97.33,4217800
EOG,20101004,95.37,96.85,95.18,95.72,6281200
EOG,20101001,94.11,96.59,93.98,96.17,6027800
EOG,20100930,94.48,94.85,91.71,92.97,5975800
EOG,20100929,91.01,93.94,90.76,93.82,5637600
EOG,20100928,91.36,91.98,90.08,91.78,3562600
EOG,20100927,92.24,92.97,91.19,91.25,3128200
EOG,20100924,91.14,92.87,90.06,92.11,5462400
EOG,20100923,89.30,90.78,88.63,89.67,4382800
EOG,20100922,89.70,90.93,89.70,90.36,7357200
EOG,20100921,88.00,90.25,87.27,89.62,7783000
EOG,20100920,89.42,89.87,87.35,87.73,9566400
EOG,20100917,91.08,91.08,87.84,89.11,14141400
EOG,20100916,92.19,92.70,90.44,91.00,4964800
EOG,20100915,91.74,92.15,90.73,91.58,5565200
EOG,20100914,91.87,93.14,91.30,92.20,3089800
EOG,20100913,93.15,93.15,91.64,92.29,3136800
EOG,20100910,89.62,92.56,89.62,92.20,6026600
EOG,20100909,91.44,91.50,88.52,89.37,3482000
EOG,20100908,88.72,90.63,88.72,90.27,4197200
EOG,20100907,89.26,89.89,88.34,88.71,4334400
EOG,20100903,90.33,91.38,89.79,90.33,4177800
EOG,20100902,90.08,90.08,88.44,89.49,3262400
EOG,20100901,88.28,90.06,87.29,89.94,6198200
EOG,20100831,87.15,88.32,85.91,86.87,5759200
EOG,20100830,89.24,89.93,87.53,87.56,4549800
EOG,20100827,87.55,89.61,85.80,89.40,4313000
EOG,20100826,88.08,89.02,86.18,86.62,4585600
EOG,20100825,87.91,87.98,85.42,87.46,7512000
EOG,20100824,90.30,90.48,87.54,88.61,7086000
EOG,20100823,91.63,92.95,91.39,91.73,3983200
EOG,20100820,91.26,91.70,90.43,91.42,5652400
EOG,20100819,92.99,93.59,91.12,91.52,5907400
EOG,20100818,94.77,95.00,91.96,93.35,6057200
EOG,20100817,95.07,95.60,93.79,95.16,4893600
EOG,20100816,93.49,94.19,92.11,94.09,5392600
EOG,20100813,95.31,95.93,93.71,94.17,8137600
EOG,20100812,95.39,97.86,95.03,95.36,5922400
EOG,20100811,98.59,99.18,96.73,97.15,4957600
EOG,20100810,98.80,101.41,98.49,100.70,9591400
EOG,20100809,100.17,100.60,98.11,99.94,5257200
EOG,20100806,96.45,99.73,95.25,99.26,13765000
EOG,20100805,102.25,102.90,101.12,102.44,3536800
EOG,20100804,102.06,103.75,101.52,103.00,3199200
EOG,20100803,102.30,102.85,101.20,101.70,4207400
EOG,20100802,99.31,102.85,99.06,102.51,5238800
EOG,20100730,99.58,100.98,97.14,97.50,7647800
EOG,20100729,101.73,102.02,99.47,100.58,3649600
EOG,20100728,100.93,101.86,100.02,100.56,3330600
EOG,20100727,103.86,103.94,99.11,100.56,6075000
EOG,20100726,102.21,104.42,102.21,103.72,3420200
EOG,20100723,102.79,103.21,100.59,102.33,4672200
EOG,20100722,103.85,104.74,102.77,103.20,4220600
EOG,20100721,104.53,104.64,101.53,102.42,4824000
EOG,20100720,100.48,104.49,100.01,104.15,5762800
EOG,20100719,102.68,103.52,100.67,102.01,4603600
EOG,20100716,105.12,105.53,101.13,102.28,6213400
EOG,20100715,107.00,107.00,103.93,106.19,4244400
EOG,20100714,106.11,108.47,105.16,106.64,4206400
EOG,20100713,106.99,108.32,106.51,106.81,5246600
EOG,20100712,105.30,106.60,104.68,105.54,3225400
EOG,20100709,105.89,106.89,104.25,105.57,3729800
EOG,20100708,104.88,106.80,103.75,106.22,7048200
EOG,20100707,100.12,103.82,99.23,103.80,5457800
EOG,20100706,100.34,102.70,98.77,99.85,5190000
EOG,20100702,98.69,100.65,97.57,98.34,5203200
EOG,20100701,98.52,99.98,95.78,99.08,6529800
EOG,20100630,100.26,101.35,98.05,98.37,7370200
EOG,20100629,103.33,103.76,99.53,100.24,8280600
EOG,20100628,108.94,109.57,104.94,105.42,6190600
EOG,20100625,106.24,109.97,104.61,109.78,14346000
EOG,20100624,105.82,108.22,103.98,104.59,5616200
EOG,20100623,106.57,107.92,105.26,106.84,5380000
EOG,20100622,110.61,111.35,105.81,106.45,6003800
EOG,20100621,112.00,113.90,109.52,110.61,6072000
EOG,20100618,110.00,110.55,108.98,110.22,6053600
EOG,20100617,110.42,111.14,108.52,110.06,5131000
EOG,20100616,109.44,111.42,108.73,110.39,3497000
EOG,20100615,110.61,111.03,108.85,110.36,6059200
EOG,20100614,110.94,112.16,108.64,108.95,6218800
EOG,20100611,107.99,109.91,106.95,109.86,4579000
EOG,20100610,105.82,108.87,105.82,108.77,6913000
EOG,20100609,106.18,108.54,103.09,103.81,6417000
EOG,20100608,102.51,105.79,101.10,105.36,8279400
EOG,20100607,103.56,106.20,99.38,101.14,10243600
EOG,20100604,107.80,110.59,101.93,102.99,12639600
EOG,20100603,107.47,109.91,105.12,109.73,7268000
EOG,20100602,102.10,107.80,100.87,107.75,8104600
EOG,20100601,103.59,104.99,100.59,100.83,6682200
EOG,20100528,106.03,107.57,103.85,104.84,6427400
EOG,20100527,101.97,106.72,101.45,106.51,8044200
EOG,20100526,100.02,101.89,99.40,99.74,6588600
EOG,20100525,93.50,98.93,93.43,98.71,6507000
EOG,20100524,99.63,101.07,97.26,97.36,5724600
EOG,20100521,94.38,100.66,93.28,100.59,8270400
EOG,20100520,99.64,99.78,96.03,96.29,5676600
EOG,20100519,102.52,104.23,99.59,102.23,5389000
EOG,20100518,104.99,105.92,102.47,102.84,5912000
EOG,20100517,106.16,107.29,100.96,103.23,6259200
EOG,20100514,106.94,107.62,103.41,106.09,3996000
EOG,20100513,108.11,110.11,107.60,108.08,5214200
EOG,20100512,105.00,108.74,105.00,108.38,6906000
EOG,20100511,104.98,105.41,103.85,104.74,7709400
EOG,20100510,102.67,107.77,101.57,106.49,6382800
EOG,20100507,101.82,104.56,98.93,100.84,7443600
EOG,20100506,104.40,105.47,96.57,102.37,9517000
EOG,20100505,108.00,108.94,104.27,105.17,6750800
EOG,20100504,109.35,110.54,105.43,110.24,8399000
EOG,20100503,112.82,114.90,111.04,113.56,5917000
EOG,20100430,111.54,114.95,110.56,112.12,7072200
EOG,20100429,110.19,111.61,109.19,111.26,4683200
EOG,20100428,109.39,110.39,108.07,109.42,4351200
EOG,20100427,112.05,113.04,108.35,108.63,4669200
EOG,20100426,113.95,114.58,112.15,112.48,4169200
EOG,20100423,112.15,113.86,111.07,113.72,5312800
EOG,20100422,110.97,113.22,109.86,113.01,4489400
EOG,20100421,111.31,112.22,110.45,111.87,3977000
EOG,20100420,108.88,111.67,108.88,111.51,5422800
EOG,20100419,106.46,108.40,106.30,107.99,5201600
EOG,20100416,109.56,110.36,107.30,107.47,6579000
EOG,20100415,109.38,110.95,108.70,110.50,4230800
EOG,20100414,108.83,109.44,107.31,109.29,5541000
EOG,20100413,106.96,108.40,105.17,107.38,7185800
EOG,20100412,104.58,107.30,103.91,107.18,6823200
EOG,20100409,107.33,108.19,104.67,104.77,6304000
EOG,20100408,103.93,107.78,103.74,106.96,14024400
EOG,20100407,100.42,105.24,99.88,103.74,16481200
EOG,20100406,97.61,98.61,97.10,97.38,5366400
EOG,20100405,96.16,98.13,95.60,97.77,6428200
EOG,20100401,94.03,95.61,94.01,95.58,4849800
EOG,20100331,93.50,94.01,92.68,92.94,6341600
EOG,20100330,92.92,93.69,92.22,93.34,4418600
EOG,20100329,91.61,93.09,91.56,92.96,6187800
EOG,20100326,89.67,89.67,87.53,89.59,7181600
EOG,20100325,93.29,93.91,89.12,89.42,6803200
EOG,20100324,93.15,94.45,92.10,92.57,4117800
EOG,20100323,91.73,94.25,91.51,94.14,5594800
EOG,20100322,90.76,92.63,89.59,91.50,6130600
EOG,20100319,91.70,94.36,90.34,91.70,8416400
EOG,20100318,96.05,96.39,92.35,93.28,6340200
EOG,20100317,96.77,97.54,95.25,95.81,5742400
EOG,20100316,97.49,97.49,95.97,96.48,3621600
EOG,20100315,97.32,97.49,95.36,96.89,3561600
EOG,20100312,98.84,98.93,97.07,97.58,2114400
EOG,20100311,98.62,99.19,97.38,97.78,4580200
EOG,20100310,97.89,99.38,97.42,98.84,4033400
EOG,20100309,96.52,99.28,96.52,98.05,5116800
EOG,20100308,97.14,98.22,97.00,97.37,4479800
EOG,20100305,95.95,97.47,95.26,97.38,5520200
EOG,20100304,96.04,96.94,94.83,95.20,4888800
EOG,20100303,95.46,96.32,94.78,95.82,4738600
EOG,20100302,95.16,96.09,94.52,94.83,3815600
EOG,20100301,94.47,95.55,94.23,94.65,4078400
EOG,20100226,93.54,94.38,92.40,94.05,3510200
EOG,20100225,90.66,93.33,89.95,93.22,3998800
EOG,20100224,91.41,92.98,90.82,92.68,5405400
EOG,20100223,91.40,91.95,89.60,89.91,4300000
EOG,20100222,95.22,95.22,91.80,92.11,3793400
EOG,20100219,93.87,95.04,92.99,94.64,3841200
EOG,20100218,92.42,94.82,92.11,94.34,4983600
EOG,20100217,93.10,93.27,92.19,92.86,4310600
EOG,20100216,92.65,93.87,92.27,92.82,5396400
EOG,20100212,89.48,91.24,88.60,90.98,5837000
EOG,20100211,87.92,91.15,87.77,91.06,7156400
EOG,20100210,90.63,90.99,86.78,88.24,15979600
EOG,20100209,93.03,95.30,92.38,94.54,5327800
EOG,20100208,92.54,93.75,90.89,91.58,4260600
EOG,20100205,92.90,93.38,90.02,92.86,5978600
EOG,20100204,95.77,96.04,92.78,92.90,4853200
EOG,20100203,96.16,98.22,96.06,97.20,4281200
EOG,20100202,95.84,97.22,94.26,97.03,3776200
EOG,20100201,91.26,95.66,91.25,95.55,4456800
EOG,20100129,91.77,94.03,89.37,90.42,6351400
EOG,20100128,93.01,93.34,89.57,91.51,5442800
EOG,20100127,92.23,93.82,90.10,92.39,6554400
EOG,20100126,93.96,95.07,92.44,93.14,3936800
EOG,20100125,94.86,96.14,94.62,94.97,2796400
EOG,20100122,96.27,97.19,93.77,94.05,5838200
EOG,20100121,96.57,97.57,95.30,96.59,6386400
EOG,20100120,95.82,96.53,95.25,96.33,4049600
EOG,20100119,96.32,97.59,96.07,97.35,4412200
EOG,20100115,98.00,98.89,96.69,96.87,5931000
EOG,20100114,97.68,98.71,97.45,98.00,3175800
EOG,20100113,95.18,98.16,94.05,97.76,4303600
EOG,20100112,95.76,97.10,95.16,95.42,4477000
EOG,20100111,99.58,99.81,97.02,98.14,3030800
EOG,20100108,97.73,99.29,96.29,99.05,5911400
EOG,20100107,98.89,99.05,97.44,98.55,4496800
EOG,20100106,98.84,99.69,97.67,99.48,3650400
EOG,20100105,99.01,100.00,97.79,99.15,4450000
EOG,20100104,99.35,100.44,99.24,100.38,4110000
EOG,20091231,98.82,99.75,97.30,97.30,1999400
EOG,20091230,99.28,99.71,98.44,98.81,2169800
EOG,20091229,100.17,100.72,98.42,99.27,3954800
EOG,20091228,101.76,101.76,99.53,99.93,3003200
EOG,20091224,99.98,101.45,99.52,100.58,2039200
EOG,20091223,97.79,99.94,97.68,99.89,5675000
EOG,20091222,95.57,97.96,95.01,97.77,4480200
EOG,20091221,93.83,95.24,93.83,94.69,4467400
EOG,20091218,93.52,94.10,92.25,92.95,5674800
EOG,20091217,93.21,94.63,91.44,92.53,5029600
EOG,20091216,92.23,94.32,92.01,93.31,5722600
EOG,20091215,90.01,92.07,90.01,91.80,8194800
EOG,20091214,90.17,91.89,89.90,90.39,13261600
EOG,20091211,87.01,87.37,85.86,86.05,4262400
EOG,20091210,85.60,87.53,85.59,86.67,4778000
EOG,20091209,85.74,86.46,84.00,85.69,4546600
EOG,20091208,86.83,86.91,84.95,85.25,4475000
EOG,20091207,86.78,88.83,86.04,87.27,4416600
EOG,20091204,88.23,90.23,85.69,87.07,6688200
EOG,20091203,86.97,87.90,86.18,86.86,6497800
EOG,20091202,88.14,88.65,86.56,87.09,2879000
EOG,20091201,87.61,89.43,87.43,88.29,4465000
EOG,20091130,86.20,87.59,85.48,86.49,5814000
EOG,20091127,86.41,87.82,85.40,87.23,1805000
EOG,20091125,88.71,90.06,87.91,89.71,4273200
EOG,20091124,88.36,88.72,87.01,88.55,6292800
EOG,20091123,88.30,89.48,87.77,88.18,5365600
EOG,20091120,86.27,86.73,85.19,86.47,6437800
EOG,20091119,87.98,87.98,85.73,86.92,5007400
EOG,20091118,90.28,90.29,87.69,88.74,4376000
EOG,20091117,90.13,90.16,88.75,89.98,3563200
EOG,20091116,90.29,90.90,89.29,90.53,10138200
EOG,20091113,88.67,89.90,88.06,88.50,5975400
EOG,20091112,89.94,90.55,87.40,88.86,5889600
EOG,20091111,91.96,92.48,89.91,90.25,6000000
EOG,20091110,92.11,92.66,89.92,91.18,6099200
EOG,20091109,90.01,92.58,90.01,92.40,6071000
EOG,20091106,90.43,92.28,89.40,90.35,9251000
EOG,20091105,85.84,88.04,84.32,88.03,6540600
EOG,20091104,84.73,87.15,84.45,85.30,8613600
EOG,20091103,81.15,83.43,80.67,83.00,4720200
EOG,20091102,81.74,83.31,80.37,81.97,5542000
EOG,20091030,85.81,85.81,80.88,81.66,6872600
EOG,20091029,85.15,86.17,84.27,85.84,8279400
EOG,20091028,86.08,86.81,83.87,84.27,6108200
EOG,20091027,87.70,88.59,86.45,86.77,4341600
EOG,20091026,89.34,91.56,86.54,86.86,5910800
EOG,20091023,92.14,92.34,88.37,89.16,4673400
EOG,20091022,90.60,91.63,89.23,91.45,6437400
EOG,20091021,93.64,95.86,92.85,92.94,5750600
EOG,20091020,94.52,95.00,93.10,94.41,5473600
EOG,20091019,92.56,94.53,92.56,94.35,4714200
EOG,20091016,92.92,93.31,91.53,92.81,4578000
EOG,20091015,90.86,93.35,90.72,93.14,6246800
EOG,20091014,91.02,91.65,89.75,91.44,5499600
EOG,20091013,90.63,90.63,87.90,89.63,7242800
EOG,20091012,91.06,91.69,90.06,90.58,5085200
EOG,20091009,89.17,90.98,88.33,89.60,7444400
EOG,20091008,85.24,89.91,84.91,89.69,9108600
EOG,20091007,84.43,85.00,82.88,84.71,5369600
EOG,20091006,83.65,84.68,82.86,84.58,5635600
EOG,20091005,80.75,83.00,80.22,82.51,6430200
EOG,20091002,79.73,81.30,79.37,80.76,7547800
EOG,20091001,83.58,83.58,80.91,81.05,9274400
EOG,20090930,82.32,84.36,81.28,83.51,9541600
EOG,20090929,80.00,81.85,78.91,81.64,6419200
EOG,20090928,79.35,80.21,78.87,80.13,2636800
EOG,20090925,79.86,81.00,78.46,78.94,4390400
EOG,20090924,82.05,82.27,78.65,80.05,5906400
EOG,20090923,84.03,84.41,82.07,82.21,5024600
EOG,20090922,82.41,84.43,82.03,84.03,5682400
EOG,20090921,80.31,81.48,79.51,81.28,4089000
EOG,20090918,83.11,83.24,80.84,81.86,4478800
EOG,20090917,83.04,84.28,81.94,82.57,6729400
EOG,20090916,80.52,83.28,79.76,83.23,6368200
EOG,20090915,77.58,80.17,77.37,79.86,6961800
EOG,20090914,75.23,77.22,74.88,77.09,4197000
EOG,20090911,77.18,78.30,75.58,75.95,6904600
EOG,20090910,74.46,77.00,73.88,76.82,5844600
EOG,20090909,73.82,75.01,72.89,74.44,5030000
EOG,20090908,72.48,74.46,72.25,73.64,9507400
EOG,20090904,69.45,70.63,68.63,70.47,4632600
EOG,20090903,70.79,70.79,69.43,69.76,4554000
EOG,20090902,70.65,70.99,69.84,69.92,4771200
EOG,20090901,71.74,72.86,70.31,70.62,5049800
EOG,20090831,71.75,72.11,71.15,72.00,3691800
EOG,20090828,73.90,74.41,72.48,73.25,3265400
EOG,20090827,73.25,73.65,71.97,72.96,5235600
EOG,20090826,73.75,74.27,72.65,73.98,3605600
EOG,20090825,76.17,76.87,74.20,74.41,3813600
EOG,20090824,76.56,76.92,75.33,75.83,2730600
EOG,20090821,74.15,76.34,74.14,75.79,4360600
EOG,20090820,73.88,74.80,73.39,73.56,4555200
EOG,20090819,71.76,74.57,71.09,73.82,3680600
EOG,20090818,71.78,72.79,71.24,72.33,3303400
EOG,20090817,73.34,73.34,71.02,71.84,4109400
EOG,20090814,75.59,75.79,73.90,74.69,4664000
EOG,20090813,74.28,75.76,74.26,75.57,3543800
EOG,20090812,73.35,75.06,73.35,74.19,4152600
EOG,20090811,75.69,75.97,73.65,73.76,4027000
EOG,20090810,74.62,76.98,74.62,76.20,6453600
EOG,20090807,78.59,79.65,74.51,74.73,8959400
EOG,20090806,78.79,79.61,76.97,78.22,5700800
EOG,20090805,77.54,78.13,76.13,78.02,6135200
EOG,20090804,76.08,77.51,75.23,77.45,5036000
EOG,20090803,75.20,77.69,75.20,76.65,5601000
EOG,20090731,72.45,74.95,71.86,74.03,5011600
EOG,20090730,72.45,73.66,70.90,72.90,6087000
EOG,20090729,72.31,72.31,70.11,70.90,4426800
EOG,20090728,73.33,74.15,71.52,73.44,4418800
EOG,20090727,74.85,74.96,74.00,74.30,5069400
EOG,20090724,73.51,74.77,73.31,74.69,4281200
EOG,20090723,71.40,73.99,71.21,73.81,5734400
EOG,20090722,72.21,72.50,71.03,71.40,5029000
EOG,20090721,73.14,73.37,71.08,72.59,4380000
EOG,20090720,70.46,72.46,70.46,72.30,6352800
EOG,20090717,68.64,70.43,68.35,69.59,5798400
EOG,20090716,65.88,69.72,65.80,69.25,7233400
EOG,20090715,65.37,66.80,65.06,66.48,7921000
EOG,20090714,64.53,65.07,63.62,64.67,5728200
EOG,20090713,62.45,63.84,61.36,63.83,6019200
EOG,20090710,61.54,62.95,60.98,62.50,6375600
EOG,20090709,62.29,63.00,61.39,62.62,8203400
EOG,20090708,60.64,62.32,60.29,61.77,10427800
EOG,20090707,62.79,62.79,60.45,60.58,9202400
EOG,20090706,62.10,62.91,61.48,62.63,8720200
EOG,20090702,65.65,65.78,63.83,64.23,7092800
EOG,20090701,68.74,69.75,66.95,67.04,7271800
EOG,20090630,66.77,68.50,66.46,67.92,9122000
EOG,20090629,67.91,68.77,66.73,66.96,8477600
EOG,20090626,68.31,69.19,67.50,67.56,11535000
EOG,20090625,67.62,69.00,67.36,68.63,7332800
EOG,20090624,67.51,68.27,66.70,67.32,8624200
EOG,20090623,67.75,67.75,65.70,67.29,9419600
EOG,20090622,68.85,68.85,66.52,67.48,10640200
EOG,20090619,72.88,72.88,69.21,69.92,13339800
EOG,20090618,73.22,74.10,71.62,72.10,5251800
EOG,20090617,74.08,74.54,71.70,73.25,5639400
EOG,20090616,76.82,77.00,73.24,73.86,6918000
EOG,20090615,76.23,77.43,74.47,76.25,8599400
EOG,20090612,76.53,77.76,75.59,77.62,5926800
EOG,20090611,75.49,78.51,75.15,77.09,8208200
EOG,20090610,75.56,75.70,73.56,75.25,7300000
EOG,20090609,74.13,75.54,73.48,74.65,6586000
EOG,20090608,71.77,74.10,71.77,73.70,6744000
EOG,20090605,74.49,74.84,72.27,73.51,8279400
EOG,20090604,73.50,74.24,71.74,73.21,7055400
EOG,20090603,74.83,74.83,71.28,72.57,7541000
EOG,20090602,76.00,76.55,74.08,76.21,8430800
EOG,20090601,74.74,77.46,74.73,76.72,6546200
EOG,20090529,73.47,73.89,72.15,73.19,5954600
EOG,20090528,69.12,73.57,68.78,72.61,9063200
EOG,20090527,69.47,70.35,67.89,68.27,8435600
EOG,20090526,66.24,69.48,65.48,69.27,7306000
EOG,20090522,70.29,70.73,68.96,69.19,3597200
EOG,20090521,71.28,71.28,68.83,69.75,6644200
EOG,20090520,72.76,74.82,72.18,72.44,5443400
EOG,20090519,71.19,73.11,70.75,72.02,5420800
EOG,20090518,69.15,71.97,69.15,71.05,6765600
EOG,20090515,70.92,71.81,67.50,68.25,7274200
EOG,20090514,70.32,71.93,69.18,71.36,4898800
EOG,20090513,71.30,72.58,69.18,70.32,6814000
EOG,20090512,74.96,74.97,70.96,73.25,8695800
EOG,20090511,75.33,75.49,72.87,73.73,7374200
EOG,20090508,74.89,77.57,74.34,76.87,8698800
EOG,20090507,77.83,79.12,72.46,73.52,13761800
EOG,20090506,72.86,77.65,72.28,77.53,13852800
EOG,20090505,71.70,72.23,69.01,71.01,7643600
EOG,20090504,66.31,72.16,66.28,72.04,9372200
EOG,20090501,63.51,66.65,63.28,66.08,7522000
EOG,20090430,66.07,66.64,62.48,63.48,8086200
EOG,20090429,63.36,66.93,63.22,65.74,7498600
EOG,20090428,61.54,64.00,61.13,63.39,7324600
EOG,20090427,61.46,63.01,60.46,62.42,5578600
EOG,20090424,62.60,64.16,61.68,63.17,10178800
EOG,20090423,57.00,60.40,56.74,60.12,9707600
EOG,20090422,56.74,57.80,55.74,56.36,6562000
EOG,20090421,55.60,57.04,54.86,56.91,6935400
EOG,20090420,58.52,58.70,55.85,55.97,6878800
EOG,20090417,57.80,60.67,57.33,60.08,8545000
EOG,20090416,60.20,60.30,57.40,58.58,7110000
EOG,20090415,60.00,61.55,58.45,59.24,6477000
EOG,20090414,61.84,62.59,60.25,60.52,7166800
EOG,20090413,60.43,62.77,58.75,61.97,6582800
EOG,20090409,61.02,62.05,59.67,61.35,5287800
EOG,20090408,57.29,59.49,55.78,59.05,5865200
EOG,20090407,59.34,59.77,57.58,57.97,3969400
EOG,20090406,62.07,62.08,59.63,60.70,5047600
EOG,20090403,60.32,64.32,59.94,63.14,6802000
EOG,20090402,58.67,61.40,58.66,60.33,7326400
EOG,20090401,53.76,57.41,53.09,57.13,7474600
EOG,20090331,57.19,58.40,54.61,54.76,8210200
EOG,20090330,57.67,58.48,55.36,56.66,6069800
EOG,20090327,60.94,61.08,58.83,59.31,5949000
EOG,20090326,64.08,65.19,61.52,61.99,7600800
EOG,20090325,63.80,65.89,61.50,63.44,7771400
EOG,20090324,64.90,65.48,63.28,64.08,4656200
EOG,20090323,63.64,66.65,63.43,66.08,7187600
EOG,20090320,64.21,65.00,61.28,61.95,8493800
EOG,20090319,63.63,65.46,63.10,63.24,8830200
EOG,20090318,62.45,62.79,58.51,62.01,12494400
EOG,20090317,61.46,63.10,60.37,63.10,10786400
EOG,20090316,58.60,62.97,58.60,61.52,9112000
EOG,20090313,58.75,59.44,57.75,58.99,8986600
EOG,20090312,54.27,59.10,53.66,58.81,14070800
EOG,20090311,53.31,54.71,52.50,54.00,7700200
EOG,20090310,51.57,54.00,51.28,52.91,9070600
EOG,20090309,51.23,52.52,49.98,50.42,8642200
EOG,20090306,53.25,54.36,50.22,52.07,11733400
EOG,20090305,50.33,52.84,49.57,51.84,15736000
EOG,20090304,49.46,52.79,49.24,51.10,15170800
EOG,20090303,46.51,49.70,45.53,48.04,15610000
EOG,20090302,48.27,49.69,45.03,45.59,11170600
EOG,20090227,50.06,51.63,48.86,50.04,7705600
EOG,20090226,52.87,53.56,51.15,51.41,6563200
EOG,20090225,53.23,53.54,51.14,52.03,8820800
EOG,20090224,51.47,53.41,50.95,53.33,8170000
EOG,20090223,55.99,56.36,50.85,50.98,10596200
EOG,20090220,54.61,56.22,54.17,55.11,9756200
EOG,20090219,57.00,57.92,55.18,55.82,10591400
EOG,20090218,56.84,57.07,55.00,56.62,11810600
EOG,20090217,61.99,61.99,56.06,56.24,12656000
EOG,20090213,64.60,65.31,63.31,63.72,6914000
EOG,20090212,63.16,64.65,62.35,64.10,6960000
EOG,20090211,67.60,67.71,63.35,64.36,7816200
EOG,20090210,70.95,71.72,65.79,66.40,8097200
EOG,20090209,69.26,71.16,68.25,70.74,8033800
EOG,20090206,67.62,69.31,66.44,68.41,8489000
EOG,20090205,68.37,70.13,67.00,69.09,9820400
EOG,20090204,68.68,70.06,67.94,68.58,9603200
EOG,20090203,67.57,68.30,66.29,67.89,8875000
EOG,20090202,66.36,67.95,66.01,66.74,9816400
EOG,20090130,70.00,70.76,67.29,67.77,8403600
EOG,20090129,68.37,69.85,68.01,68.57,8785000
EOG,20090128,68.00,70.17,66.84,69.96,8281800
EOG,20090127,67.59,67.87,66.04,66.66,6738400
EOG,20090126,67.70,69.94,67.03,68.00,7279600
EOG,20090123,62.44,67.63,61.41,66.57,8248400
EOG,20090122,62.88,65.38,62.01,63.72,6760200
EOG,20090121,61.12,65.59,60.92,65.32,8017600
EOG,20090120,62.66,64.88,60.29,60.73,8446800
EOG,20090116,65.09,65.48,62.00,63.73,7614800
EOG,20090115,63.25,64.65,61.45,64.02,9986800
EOG,20090114,65.60,66.31,62.72,63.39,8783000
EOG,20090113,63.56,67.73,62.90,67.08,9307000
EOG,20090112,65.46,66.06,62.54,63.57,6922800
EOG,20090109,69.55,70.65,66.17,66.54,6936000
EOG,20090108,69.65,70.33,67.74,69.61,6005000
EOG,20090107,70.18,70.69,66.55,68.67,6792200
EOG,20090106,71.53,72.39,70.52,71.12,10830000
EOG,20090105,70.18,72.83,69.03,70.67,7711200
EOG,20090102,67.94,70.90,66.93,70.39,5112600
EOG,20081231,64.92,67.76,64.64,66.58,4564800
EOG,20081230,65.86,65.97,63.85,65.82,4941600
EOG,20081229,65.69,66.50,64.34,66.14,4138400
EOG,20081226,63.03,64.59,63.02,64.27,2414400
EOG,20081224,61.65,63.00,61.29,62.86,2499400
EOG,20081223,61.36,64.59,61.08,63.33,6431800
EOG,20081222,64.73,64.90,59.89,61.16,6016200
EOG,20081219,64.89,66.74,63.98,64.96,9103000
EOG,20081218,69.15,69.86,64.26,64.84,7795000
EOG,20081217,70.80,72.68,69.32,69.60,7371600
EOG,20081216,70.68,71.34,68.76,71.01,5659200
EOG,20081215,70.04,71.65,67.43,69.14,7980400
EOG,20081212,68.73,69.75,66.76,67.97,8444400
EOG,20081211,74.98,78.41,71.42,72.06,8293200
EOG,20081210,71.88,75.92,71.55,73.67,9981600
EOG,20081209,68.10,73.37,66.29,70.40,8870800
EOG,20081208,70.58,72.97,67.32,69.07,11358600
EOG,20081205,67.00,68.31,62.81,67.94,11795200
EOG,20081204,77.82,78.52,67.51,68.79,12841600
EOG,20081203,78.19,81.95,77.58,79.99,7577800
EOG,20081202,78.50,80.32,75.77,80.02,9199600
EOG,20081201,81.51,82.80,75.63,76.10,10518400
EOG,20081128,86.41,87.47,82.15,85.02,3535000
EOG,20081126,81.28,88.88,80.85,88.47,10518800
EOG,20081125,84.19,85.43,81.34,84.02,9941400
EOG,20081124,77.54,86.17,75.57,83.64,10860000
EOG,20081121,66.88,75.39,65.19,74.71,14329200
EOG,20081120,75.22,76.18,64.00,64.97,13552400
EOG,20081119,83.53,84.16,76.43,77.28,9964200
EOG,20081118,81.14,84.08,78.17,82.53,8401000
EOG,20081117,80.18,84.44,79.14,80.45,8694800
EOG,20081114,83.27,85.83,79.96,80.63,11116200
EOG,20081113,76.58,85.88,72.73,84.97,16621000
EOG,20081112,77.00,78.68,75.29,76.17,11027000
EOG,20081111,78.92,81.15,76.59,78.82,7999600
EOG,20081110,82.14,84.97,78.84,81.10,7057000
EOG,20081107,78.04,82.32,76.99,79.88,7001800
EOG,20081106,78.86,80.62,75.04,77.17,8642800
EOG,20081105,82.13,84.95,80.27,81.81,7884800
EOG,20081104,78.76,85.50,77.56,84.16,9918200
EOG,20081103,77.83,79.66,74.35,75.78,8118000
EOG,20081031,75.30,82.63,73.01,80.92,8335000
EOG,20081030,73.96,77.63,71.90,76.97,8625800
EOG,20081029,69.47,76.47,68.08,72.58,11876400
EOG,20081028,64.57,68.09,59.97,67.53,8810200
EOG,20081027,64.15,68.67,62.28,62.99,7576800
EOG,20081024,61.26,67.51,57.56,65.87,9175400
EOG,20081023,67.36,68.67,60.61,66.31,9998800
EOG,20081022,69.08,69.47,63.41,66.03,7468400
EOG,20081021,72.86,75.44,69.50,72.36,10182000
EOG,20081020,71.66,76.10,70.46,75.04,12704000
EOG,20081017,67.44,77.05,65.50,68.94,14720800
EOG,20081016,62.88,70.21,59.85,69.10,15549200
EOG,20081015,68.45,68.45,60.04,61.17,13485800
EOG,20081014,73.92,78.24,68.12,70.94,14933000
EOG,20081013,62.03,71.98,61.79,71.75,11410000
EOG,20081010,61.60,64.69,54.42,59.59,17851600
EOG,20081009,73.08,73.75,64.36,64.36,10513800
EOG,20081008,67.95,74.61,65.91,71.63,14790200
EOG,20081007,76.97,78.46,71.16,71.16,12350400
EOG,20081006,75.00,76.44,67.19,75.75,16439600
EOG,20081003,78.88,86.25,78.03,79.94,8929600
EOG,20081002,88.64,88.64,78.46,78.61,9799800
EOG,20081001,88.09,90.80,83.14,89.74,8002000
EOG,20080930,86.68,90.75,85.98,89.46,7051600
EOG,20080929,91.00,91.00,79.80,84.82,10754000
EOG,20080926,94.07,95.80,89.82,94.52,5871400
EOG,20080925,94.01,97.77,92.89,96.88,5791400
EOG,20080924,96.75,97.73,94.27,94.76,5818400
EOG,20080923,94.01,99.86,93.85,95.15,9694000
EOG,20080922,97.24,100.42,95.22,95.68,7158400
EOG,20080919,97.58,101.50,94.00,97.00,11028400
EOG,20080918,90.99,94.85,87.51,92.51,11436400
EOG,20080917,87.13,91.72,84.03,88.81,15636400
EOG,20080916,84.03,87.26,80.12,87.08,12354400
EOG,20080915,85.07,89.22,84.18,85.35,12568800
EOG,20080912,88.01,91.41,88.01,90.82,8002400
EOG,20080911,87.62,89.36,83.39,88.57,11355400
EOG,20080910,85.02,89.90,85.02,87.82,15704000
EOG,20080909,90.68,91.56,84.35,84.39,11614000
EOG,20080908,97.97,97.99,91.45,92.29,11080600
EOG,20080905,94.94,96.37,92.09,95.78,9791400
EOG,20080904,93.99,95.85,90.05,93.45,9738800
EOG,20080903,95.53,97.19,91.60,94.11,10270800
EOG,20080902,98.92,102.22,95.10,95.91,9066400
EOG,20080829,106.99,107.00,103.76,104.42,5687600
EOG,20080828,111.46,111.46,103.09,105.34,7273400
EOG,20080827,109.69,111.54,108.04,109.17,5658800
EOG,20080826,104.89,108.87,104.89,107.76,9409800
EOG,20080825,103.39,104.28,100.83,102.21,4941800
EOG,20080822,106.18,106.18,101.60,103.64,5172000
EOG,20080821,108.81,108.81,104.47,106.31,6794600
EOG,20080820,102.24,105.99,101.68,105.60,10557800
EOG,20080819,94.37,100.25,94.37,99.88,8332200
EOG,20080818,96.05,97.50,94.34,94.74,6152400
EOG,20080815,95.64,96.33,93.93,95.60,5758600
EOG,20080814,100.47,100.47,95.85,97.05,7023400
EOG,20080813,95.09,100.02,95.06,99.58,5845200
EOG,20080812,96.04,99.10,95.20,95.30,8546800
EOG,20080811,95.33,96.02,92.05,95.36,6465000
EOG,20080808,93.31,95.06,92.73,93.86,7011200
EOG,20080807,98.08,99.79,95.39,95.63,10104000
EOG,20080806,95.31,98.25,94.16,97.98,8380400
EOG,20080805,94.00,95.00,91.06,94.80,10808600
EOG,20080804,99.80,100.21,92.49,93.28,8485600
EOG,20080801,101.63,104.68,99.80,100.49,7621800
EOG,20080731,107.64,107.64,100.16,100.53,8917600
EOG,20080730,98.32,105.33,98.00,105.15,10114400
EOG,20080729,100.76,102.17,98.12,100.01,10397600
EOG,20080728,104.36,106.99,101.87,101.88,6589000
EOG,20080725,102.72,105.99,100.92,104.05,7666400
EOG,20080724,104.40,106.02,98.71,101.18,11492400
EOG,20080723,106.25,107.67,102.02,103.02,9418800
EOG,20080722,107.93,109.26,103.65,106.43,10187400
EOG,20080721,108.00,110.10,105.36,109.03,6666400
EOG,20080718,105.00,109.30,104.07,106.39,6814600
EOG,20080717,109.37,111.43,101.83,104.62,12262600
EOG,20080716,110.43,111.42,105.83,108.44,10839200
EOG,20080715,117.60,119.97,111.48,111.48,8590600
EOG,20080714,119.94,120.55,116.72,119.04,5798800
EOG,20080711,117.25,119.38,115.71,118.56,8638800
EOG,20080710,111.43,116.67,111.43,116.49,6451200
EOG,20080709,118.50,119.63,111.17,111.19,7468600
EOG,20080708,113.99,117.88,110.12,117.34,12393000
EOG,20080707,118.97,120.51,114.49,115.46,8925800
EOG,20080703,124.51,126.00,119.74,120.71,6923400
EOG,20080702,132.25,133.89,124.51,124.57,6968800
EOG,20080701,131.53,133.05,130.00,131.54,6209400
EOG,20080630,131.87,133.99,130.83,131.20,6402600
EOG,20080627,127.87,130.93,126.12,130.19,8619400
EOG,20080626,127.28,129.84,125.69,126.19,7803000
EOG,20080625,130.94,130.95,124.77,127.84,5142000
EOG,20080624,134.99,134.99,130.37,130.45,5647600
EOG,20080623,130.41,135.57,129.40,135.54,6867800
EOG,20080620,131.49,133.28,129.23,130.41,7226600
EOG,20080619,134.92,135.10,130.20,130.30,7175600
EOG,20080618,131.59,133.38,129.46,133.03,5273600
EOG,20080617,130.05,132.63,128.99,132.01,6102000
EOG,20080616,131.24,132.86,128.41,129.43,5533000
EOG,20080613,127.38,130.96,126.60,130.31,5475800
EOG,20080612,130.50,130.99,127.84,128.58,7605200
EOG,20080611,129.80,130.46,126.56,128.39,5755400
EOG,20080610,132.10,132.48,126.25,128.46,6793400
EOG,20080609,129.75,133.71,128.97,131.89,6195200
EOG,20080606,132.28,137.25,128.81,128.81,8541800
EOG,20080605,124.85,131.29,124.84,131.29,9276800
EOG,20080604,123.15,126.60,122.61,124.09,7362000
EOG,20080603,126.72,128.85,123.74,124.07,9217600
EOG,20080602,127.90,130.31,125.91,127.34,8510800
EOG,20080530,128.07,130.31,125.74,128.63,10141200
EOG,20080529,133.57,133.57,127.38,127.80,8126200
EOG,20080528,131.47,134.54,130.05,134.41,6607600
EOG,20080527,134.75,134.88,132.06,133.13,4115600
EOG,20080523,137.99,139.00,132.43,134.97,5563600
EOG,20080522,138.97,140.51,135.45,136.70,5573600
EOG,20080521,144.00,144.99,138.78,138.80,9443600
EOG,20080520,140.18,144.28,139.20,143.41,6687200
EOG,20080519,142.11,142.11,139.15,139.90,6753800
EOG,20080516,137.21,141.88,137.09,140.99,7097800
EOG,20080515,137.95,138.40,132.85,135.97,6917000
EOG,20080514,139.58,139.86,134.51,134.87,5093600
EOG,20080513,137.12,139.10,134.29,138.55,5588200
EOG,20080512,137.90,137.90,135.10,136.00,5652600
EOG,20080509,140.89,140.89,135.98,138.50,5142800
EOG,20080508,134.58,140.18,134.20,139.79,6648800
EOG,20080507,139.09,139.35,134.85,135.02,5714000
EOG,20080506,131.93,138.15,131.93,137.88,5217800
EOG,20080505,128.77,133.60,128.48,132.54,4265000
EOG,20080502,125.20,130.00,123.92,127.75,5951000
EOG,20080501,129.19,129.37,122.72,126.85,6962400
EOG,20080430,128.51,130.97,127.47,130.48,5297800
EOG,20080429,132.69,132.69,127.90,128.36,5658200
EOG,20080428,136.94,137.14,133.74,134.04,3865600
EOG,20080425,132.70,136.32,130.90,135.75,5411400
EOG,20080424,135.58,136.24,130.90,131.75,4683200
EOG,20080423,137.00,138.00,134.79,137.25,4503400
EOG,20080422,137.98,140.49,136.46,137.25,3912000
EOG,20080421,134.99,138.55,134.31,137.41,6487800
EOG,20080418,132.98,134.51,129.07,134.17,4208800
EOG,20080417,133.00,134.92,131.16,131.96,4820800
EOG,20080416,132.95,133.00,129.52,133.00,4610600
EOG,20080415,130.10,134.53,128.89,131.14,4734800
EOG,20080414,126.49,129.63,126.49,127.89,4813200
EOG,20080411,128.35,129.19,125.69,126.32,4802600
EOG,20080410,127.45,130.47,127.45,129.82,5323400
EOG,20080409,127.77,130.00,126.64,127.69,5523600
EOG,20080408,125.25,129.44,125.25,128.76,4850800
EOG,20080407,124.94,128.57,124.29,126.18,6066600
EOG,20080404,122.67,125.30,122.11,123.78,3856200
EOG,20080403,120.40,123.60,120.40,121.44,4706400
EOG,20080402,121.29,123.68,118.74,121.36,4716800
EOG,20080401,121.22,121.73,117.76,120.87,4579800
EOG,20080331,120.54,121.94,117.50,120.00,4462000
EOG,20080328,119.00,120.83,117.52,118.88,3796800
EOG,20080327,120.37,122.88,117.86,117.92,4897000
EOG,20080326,115.76,121.56,115.76,120.41,6711000
EOG,20080325,114.78,117.75,113.45,116.22,5086000
EOG,20080324,112.95,115.91,111.42,114.01,5960000
EOG,20080320,110.00,113.12,105.90,112.27,12264200
EOG,20080319,122.86,125.15,112.94,113.12,10194200
EOG,20080318,123.43,123.50,120.82,123.47,6946000
EOG,20080317,123.35,124.17,117.20,120.41,7852400
EOG,20080314,126.23,126.98,123.04,126.10,8327400
EOG,20080313,117.48,128.15,117.48,126.96,10660200
EOG,20080312,121.75,122.19,117.32,118.93,5773800
EOG,20080311,116.77,122.22,116.08,121.90,7937600
EOG,20080310,116.46,116.46,113.54,114.56,7074600
EOG,20080307,116.45,118.43,114.96,116.46,8168200
EOG,20080306,119.78,120.74,117.33,117.61,7266000
EOG,20080305,120.99,121.63,119.18,120.61,9227600
EOG,20080304,120.00,122.47,116.60,119.90,10105600
EOG,20080303,119.07,123.47,118.04,122.17,10478200
EOG,20080229,123.13,123.89,117.93,118.99,10887000
EOG,20080228,112.74,129.90,112.55,124.73,32843600
EOG,20080227,106.51,108.14,105.47,105.68,6534800
EOG,20080226,103.84,108.92,102.37,108.23,13196000
EOG,20080225,100.02,104.67,100.02,104.13,9753400
EOG,20080222,97.88,99.56,96.97,99.35,4145000
EOG,20080221,100.90,100.90,97.46,97.67,5600800
EOG,20080220,97.05,100.98,97.05,100.52,5369800
EOG,20080219,98.28,100.95,96.64,98.41,7992000
EOG,20080215,97.06,98.79,93.80,96.03,6757400
EOG,20080214,98.87,100.48,97.62,97.62,7077000
EOG,20080213,98.87,100.75,98.61,100.15,7314800
EOG,20080212,98.84,100.50,96.78,97.93,8002000
EOG,20080211,93.70,98.54,93.14,98.43,10868000
EOG,20080208,91.38,95.31,91.25,94.12,8510400
EOG,20080207,87.12,91.00,87.12,90.09,7087000
EOG,20080206,88.84,89.70,87.19,87.82,6161800
EOG,20080205,88.17,90.04,87.50,87.50,5634600
EOG,20080204,89.12,91.03,88.86,90.66,3821000
EOG,20080201,87.42,89.45,86.87,89.45,5501800
EOG,20080131,84.89,88.12,83.68,87.33,5017000
EOG,20080130,84.48,88.97,84.48,86.56,5721000
EOG,20080129,85.75,86.25,84.12,85.02,3731400
EOG,20080128,83.93,85.41,82.53,85.41,4067800
EOG,20080125,86.25,87.42,83.36,83.98,5707400
EOG,20080124,83.99,86.15,82.74,85.59,6353200
EOG,20080123,81.42,82.94,77.18,82.66,8238800
EOG,20080122,82.11,85.10,79.50,83.46,7500200
EOG,20080118,84.44,86.38,83.22,85.13,7699400
EOG,20080117,88.72,90.67,83.99,83.99,7025000
EOG,20080116,90.62,91.84,87.95,88.61,10414200
EOG,20080115,91.25,92.95,90.39,90.99,6582200
EOG,20080114,89.47,93.56,89.47,93.17,5735600
EOG,20080111,87.89,89.54,87.57,88.93,5747200
EOG,20080110,88.33,89.52,87.18,89.02,5305000
EOG,20080109,87.25,89.52,87.25,89.18,6048000
EOG,20080108,89.22,90.78,86.68,86.87,3996800
EOG,20080107,89.70,90.53,87.14,88.62,4844400
EOG,20080104,92.21,92.21,88.81,88.97,5684200
EOG,20080103,91.30,94.36,91.11,93.18,5088600
EOG,20080102,90.00,92.00,90.00,91.29,4804000
EOG,20071231,90.71,91.33,89.09,89.25,2002400
EOG,20071228,89.92,91.22,89.69,90.92,2934400
EOG,20071227,90.08,90.81,89.55,89.62,2414000
EOG,20071226,90.79,91.26,90.12,90.28,3602600
EOG,20071224,89.71,91.45,89.71,91.02,1159400
EOG,20071221,90.45,90.80,89.86,90.43,4232600
EOG,20071220,88.98,89.97,88.36,89.70,3012200
EOG,20071219,87.99,89.16,87.32,88.31,3174000
EOG,20071218,88.79,88.90,86.65,87.35,4456800
EOG,20071217,88.14,89.05,86.80,87.33,3511600
EOG,20071214,89.95,90.14,88.29,88.35,4926800
EOG,20071213,89.81,91.63,89.08,90.43,5781400
EOG,20071212,89.93,91.45,89.51,90.89,5423200
EOG,20071211,89.00,90.27,87.82,87.97,6193400
EOG,20071210,88.23,89.00,87.68,88.72,3757200
EOG,20071207,89.16,89.71,87.06,88.16,5146400
EOG,20071206,85.21,89.22,84.94,88.82,5785000
EOG,20071205,83.76,85.66,83.42,85.24,5116600
EOG,20071204,82.92,83.25,81.57,82.77,4266800
EOG,20071203,82.50,83.60,81.85,82.81,3298000
EOG,20071130,82.50,84.03,82.00,82.78,4547400
EOG,20071129,83.63,84.86,82.65,83.21,4059600
EOG,20071128,82.95,83.86,81.65,83.69,5163000
EOG,20071127,81.23,82.63,80.79,82.50,4304000
EOG,20071126,84.15,85.26,82.90,82.90,3476800
EOG,20071123,82.78,84.03,82.09,83.64,2136600
EOG,20071121,83.10,83.86,82.00,82.45,4138400
EOG,20071120,84.46,85.09,82.86,83.72,6524200
EOG,20071119,85.02,85.90,83.78,83.98,4170000
EOG,20071116,85.38,86.66,84.53,85.28,7882800
EOG,20071115,87.08,87.17,84.18,85.10,5589400
EOG,20071114,87.25,89.82,86.60,87.25,5638600
EOG,20071113,84.83,85.82,82.78,85.66,6122800
EOG,20071112,85.75,86.17,82.76,84.29,6947600
EOG,20071109,87.13,88.31,86.35,87.41,6296000
EOG,20071108,86.80,89.55,86.14,88.12,6224200
EOG,20071107,88.10,89.10,86.70,86.70,5142600
EOG,20071106,88.39,90.73,87.60,88.47,6129800
EOG,20071105,86.75,87.51,83.80,87.00,4024800
EOG,20071102,87.47,87.95,86.06,87.47,4934400
EOG,20071101,87.47,88.50,85.99,86.60,7817200
EOG,20071031,86.87,89.71,86.30,88.60,9933000
EOG,20071030,84.09,86.32,83.93,85.95,15344200
EOG,20071029,82.49,82.74,81.78,82.51,4727200
EOG,20071026,82.26,82.93,80.77,81.91,3447800
EOG,20071025,78.87,81.07,78.87,80.77,4804000
EOG,20071024,77.32,79.05,76.37,78.55,5423000
EOG,20071023,79.26,79.78,76.87,77.43,7499600
EOG,20071022,77.89,78.48,76.50,78.39,6761800
EOG,20071019,81.88,82.05,79.66,79.80,7995200
EOG,20071018,81.46,82.72,81.30,82.17,5510400
EOG,20071017,82.00,82.55,80.90,81.52,4949400
EOG,20071016,81.65,82.30,81.27,81.68,4058800
EOG,20071015,82.15,83.28,81.10,81.66,4501800
EOG,20071012,80.41,81.86,80.22,81.37,3388600
EOG,20071011,79.93,82.60,79.81,80.90,8131400
EOG,20071010,77.83,80.00,77.63,79.55,4317400
EOG,20071009,77.10,78.84,76.67,78.26,4385800
EOG,20071008,76.55,77.28,76.06,76.51,2476600
EOG,20071005,76.41,77.90,76.24,77.41,5901800
EOG,20071004,74.62,77.00,74.08,76.55,5592800
EOG,20071003,74.34,74.92,73.71,74.48,3713600
EOG,20071002,72.79,75.54,72.72,74.70,4293000
EOG,20071001,72.41,73.41,72.20,73.27,3361600
EOG,20070928,72.80,73.09,71.91,72.33,3145400
EOG,20070927,73.00,73.13,71.64,72.38,4667800
EOG,20070926,73.45,73.95,71.70,72.37,5607600
EOG,20070925,72.95,73.25,71.63,72.87,3434800
EOG,20070924,74.40,74.87,73.27,73.76,3329400
EOG,20070921,74.62,75.25,73.83,74.49,3423400
EOG,20070920,73.86,74.36,73.18,73.83,3412400
EOG,20070919,74.70,74.99,73.78,74.22,4609200
EOG,20070918,72.00,73.93,70.79,73.85,5216200
EOG,20070917,72.57,72.81,71.57,71.85,2919800
EOG,20070914,71.01,72.65,71.01,72.35,3454200
EOG,20070913,72.45,72.77,71.46,71.72,4186400
EOG,20070912,71.60,73.46,71.41,72.52,7509600
EOG,20070911,70.41,71.54,69.19,71.29,5166800
EOG,20070910,69.80,70.55,68.41,70.32,5581800
EOG,20070907,70.07,70.27,69.05,69.90,5285800
EOG,20070906,69.66,71.59,69.66,70.70,6774800
EOG,20070905,69.12,70.16,69.00,69.39,4854000
EOG,20070904,67.36,69.85,66.86,69.13,4291600
EOG,20070831,67.41,68.43,67.26,67.36,3538200
EOG,20070830,66.72,67.98,66.10,66.74,4313600
EOG,20070829,66.26,66.98,65.55,66.72,3270400
EOG,20070828,66.36,66.66,65.29,65.70,4246000
EOG,20070827,67.61,67.61,66.45,66.84,3253600
EOG,20070824,67.60,68.20,66.92,67.89,3332800
EOG,20070823,67.40,67.77,65.92,67.07,4843800
EOG,20070822,68.80,68.98,66.22,66.70,7774400
EOG,20070821,69.17,69.71,67.51,68.09,5663400
EOG,20070820,69.86,70.85,68.51,69.78,6122000
EOG,20070817,70.16,72.06,69.38,71.58,6786000
EOG,20070816,67.50,69.48,65.60,69.00,9662400
EOG,20070815,71.03,71.86,68.36,68.68,5777200
EOG,20070814,71.20,72.14,70.20,70.34,4240000
EOG,20070813,72.45,73.00,71.46,71.49,5616600
EOG,20070810,71.00,72.48,69.45,71.99,8231000
EOG,20070809,72.01,75.83,71.09,73.13,7807400
EOG,20070808,73.00,75.45,72.41,73.25,8064200
EOG,20070807,70.74,72.42,69.35,71.99,9374600
EOG,20070806,70.36,70.74,67.72,70.52,7103600
EOG,20070803,71.80,73.53,70.23,70.47,8473800
EOG,20070802,72.44,74.30,71.16,73.14,8551600
EOG,20070801,70.64,72.44,69.27,71.59,7433000
EOG,20070731,72.25,72.55,69.88,70.10,5929800
EOG,20070730,69.75,71.69,69.59,71.09,6836600
EOG,20070727,69.95,71.07,68.41,69.11,6565800
EOG,20070726,70.86,71.13,68.30,69.95,7927400
EOG,20070725,69.90,71.47,68.99,71.24,5748000
EOG,20070724,71.15,71.44,69.91,70.28,6810400
EOG,20070723,73.61,73.61,71.40,72.09,9631600
EOG,20070720,76.45,76.92,74.72,75.03,5982200
EOG,20070719,75.55,76.43,74.95,76.20,4903200
EOG,20070718,72.23,75.33,72.20,75.13,7249000
EOG,20070717,73.74,74.35,72.53,72.69,4450400
EOG,20070716,74.63,74.86,72.11,73.05,4870400
EOG,20070713,74.08,75.50,73.55,74.91,3655800
EOG,20070712,74.98,75.26,73.65,74.59,4078800
EOG,20070711,73.15,74.57,73.15,74.42,5195800
EOG,20070710,74.06,75.46,73.82,74.16,5443400
EOG,20070709,74.53,75.50,74.06,74.57,4418000
EOG,20070706,75.50,75.94,74.76,74.94,5190400
EOG,20070705,74.00,75.31,73.80,74.66,4933800
EOG,20070703,72.50,75.19,72.43,74.68,2873600
EOG,20070702,73.42,74.13,72.59,74.13,5644600
EOG,20070629,72.21,74.70,72.21,73.06,9076800
EOG,20070628,74.12,74.84,71.86,72.45,7101000
EOG,20070627,71.56,73.92,71.33,73.86,6704400
EOG,20070626,75.91,76.14,72.20,72.66,7102400
EOG,20070625,75.21,75.49,73.67,74.43,10015600
EOG,20070622,78.10,78.60,75.38,76.62,6998800
EOG,20070621,77.84,78.98,77.06,78.90,4434600
EOG,20070620,79.70,80.40,76.61,76.78,5000400
EOG,20070619,79.95,80.14,79.28,79.45,3585800
EOG,20070618,81.39,81.49,80.11,80.26,3391800
EOG,20070615,80.29,80.72,79.32,80.49,4786000
EOG,20070614,77.61,80.25,77.53,80.01,6009000
EOG,20070613,76.10,77.68,76.05,77.45,4003400
EOG,20070612,75.66,77.23,75.06,75.81,4479000
EOG,20070611,75.30,76.37,74.81,75.66,2862600
EOG,20070608,74.14,75.38,73.41,75.34,4044600
EOG,20070607,76.08,77.56,74.66,74.89,4966200
EOG,20070606,79.18,79.18,76.00,76.44,4197600
EOG,20070605,78.20,78.68,77.60,77.94,3795600
EOG,20070604,76.62,79.10,76.52,78.91,3702800
EOG,20070601,77.91,78.25,76.93,77.14,4897600
EOG,20070531,78.32,78.50,76.76,76.90,4276000
EOG,20070530,77.50,77.86,75.38,77.72,4267400
EOG,20070529,76.40,76.70,74.95,75.83,3769200
EOG,20070525,76.80,77.20,75.74,76.61,4269800
EOG,20070524,78.99,79.10,75.46,75.82,4292000
EOG,20070523,77.40,79.15,77.27,77.52,3939200
EOG,20070522,78.53,79.05,77.38,77.53,3319200
EOG,20070521,78.73,79.21,77.83,78.53,5096600
EOG,20070518,75.55,78.59,75.55,78.47,4742800
EOG,20070517,75.80,77.32,74.80,76.70,5047400
EOG,20070516,76.05,76.30,74.63,75.65,5004200
EOG,20070515,76.81,77.26,75.56,75.80,4159400
EOG,20070514,76.14,77.65,76.06,77.11,4744600
EOG,20070511,75.54,76.01,74.61,75.91,3904600
EOG,20070510,75.73,76.38,74.30,74.54,3870000
EOG,20070509,76.69,76.88,75.27,75.94,4868400
EOG,20070508,76.62,76.82,74.94,76.75,5317800
EOG,20070507,76.62,77.48,76.46,77.13,3128200
EOG,20070504,78.13,78.66,76.66,76.92,3818000
EOG,20070503,77.27,78.14,76.60,78.02,5868000
EOG,20070502,75.92,77.60,75.70,77.41,4670800
EOG,20070501,74.73,77.32,73.80,75.78,11027800
EOG,20070430,74.13,75.22,73.44,73.44,4358400
EOG,20070427,74.15,74.97,73.80,74.25,3621200
EOG,20070426,74.90,75.01,73.76,74.50,4582600
EOG,20070425,74.75,76.13,74.62,75.40,4303400
EOG,20070424,74.36,74.72,73.93,74.39,3488800
EOG,20070423,72.86,74.54,72.82,74.21,3109600
EOG,20070420,73.58,74.37,73.00,73.98,6147000
EOG,20070419,74.39,74.39,73.04,73.48,4947800
EOG,20070418,75.58,75.58,74.50,74.65,6335800
EOG,20070417,77.50,77.71,75.58,75.91,5842200
EOG,20070416,76.83,77.45,75.59,77.35,4270400
EOG,20070413,76.98,77.60,76.51,76.98,3767400
EOG,20070412,75.82,77.17,75.33,77.16,3814800
EOG,20070411,74.19,76.20,74.19,75.21,3712600
EOG,20070410,74.60,76.05,74.45,75.91,4532200
EOG,20070409,74.85,75.86,74.11,74.39,4215400
EOG,20070405,74.05,74.89,73.70,74.75,4949400
EOG,20070404,72.54,74.45,72.27,74.15,6272600
EOG,20070403,71.75,73.07,71.15,73.07,3660400
EOG,20070402,71.48,72.79,71.34,72.60,3459600
EOG,20070330,71.96,71.96,71.00,71.34,5818200
EOG,20070329,72.25,72.40,71.35,71.87,3564800
EOG,20070328,73.00,73.09,71.10,71.67,5022200
EOG,20070327,72.03,72.63,71.47,71.97,5519000
EOG,20070326,71.99,72.60,70.81,72.48,5352800
EOG,20070323,71.26,71.66,70.68,71.45,4214400
EOG,20070322,70.50,71.87,70.23,71.20,6851800
EOG,20070321,68.24,70.00,68.05,69.72,7003600
EOG,20070320,67.30,68.03,66.75,67.93,4280400
EOG,20070319,66.44,66.92,66.01,66.78,3194600
EOG,20070316,66.90,67.05,65.30,65.64,5571600
EOG,20070315,67.20,67.60,66.55,66.73,2961400
EOG,20070314,66.45,67.41,65.60,67.39,5077800
EOG,20070313,66.08,68.03,65.69,65.87,5643200
EOG,20070312,66.39,66.48,65.75,66.12,3912600
EOG,20070309,67.39,67.75,66.52,66.91,2607800
EOG,20070308,67.55,67.97,66.62,66.97,4149000
EOG,20070307,66.18,68.30,65.83,67.21,5459200
EOG,20070306,65.60,66.20,65.22,66.20,5358400
EOG,20070305,64.77,65.85,64.00,64.80,5663800
EOG,20070302,66.84,67.22,65.70,65.92,4252000
EOG,20070301,66.37,67.94,65.97,67.05,5433000
EOG,20070228,67.76,68.30,66.66,67.74,5409600
EOG,20070227,67.97,69.82,66.75,67.60,5900400
EOG,20070226,68.40,69.75,68.27,69.58,5483800
EOG,20070223,69.01,69.17,67.46,67.86,3750400
EOG,20070222,67.72,68.80,67.33,68.51,5587200
EOG,20070221,66.61,67.62,65.82,67.30,4177400
EOG,20070220,66.40,66.62,66.00,66.40,4883800
EOG,20070216,65.94,67.53,65.91,67.00,6502800
EOG,20070215,65.80,66.10,64.71,65.79,5802600
EOG,20070214,65.99,66.67,65.60,66.12,4305600
EOG,20070213,65.99,66.17,65.08,65.77,5973600
EOG,20070212,65.67,66.16,64.40,65.04,4772600
EOG,20070209,66.84,67.62,66.28,66.57,3502000
EOG,20070208,66.55,66.81,65.56,66.61,6008800
EOG,20070207,67.15,67.71,65.96,66.55,4512000
EOG,20070206,68.91,68.93,66.69,67.14,5581400
EOG,20070205,68.86,69.74,67.86,67.95,5881000
EOG,20070202,69.42,69.54,68.04,68.69,5581200
EOG,20070201,69.50,69.95,68.10,69.59,10007600
EOG,20070131,66.70,69.75,66.33,69.13,8264800
EOG,20070130,65.03,68.47,65.03,68.06,7449400
EOG,20070129,66.17,67.49,64.95,65.03,5342000
EOG,20070126,65.60,66.27,65.09,65.57,4264000
EOG,20070125,67.09,67.09,64.78,64.96,6689200
EOG,20070124,66.83,67.41,65.69,67.36,5309800
EOG,20070123,65.57,68.11,65.53,67.49,7264200
EOG,20070122,65.50,66.45,64.37,64.93,8496400
EOG,20070119,62.40,64.87,62.13,64.73,6780000
EOG,20070118,62.51,62.70,61.20,61.70,4997000
EOG,20070117,61.91,62.82,61.74,62.17,6105000
EOG,20070116,62.12,63.09,61.51,62.03,6056600
EOG,20070112,60.00,62.44,59.98,62.28,7472000
EOG,20070111,62.07,62.08,59.71,59.96,9170600
EOG,20070110,61.25,61.61,60.02,60.98,7194400
EOG,20070109,61.00,61.89,60.12,61.45,10820800
EOG,20070108,63.86,64.00,61.29,62.25,8059600
EOG,20070105,61.30,63.00,60.90,62.68,13043600
EOG,20070104,61.72,61.87,59.76,60.70,11306200
EOG,20070103,61.81,63.47,59.21,60.66,11005800
EOG,20061229,63.25,63.60,61.87,62.45,5953800
EOG,20061228,64.00,64.38,63.31,63.68,3759400
EOG,20061227,63.16,63.90,62.33,63.67,5196400
EOG,20061226,63.10,64.86,62.94,63.16,3400000
EOG,20061222,65.00,65.08,64.21,64.31,3027800
EOG,20061221,65.40,65.67,64.28,65.00,4775200
EOG,20061220,66.58,66.58,64.89,65.01,4978000
EOG,20061219,63.30,67.11,63.30,66.43,4960600
EOG,20061218,67.90,67.90,65.12,65.48,6180800
EOG,20061215,69.82,69.96,67.94,68.62,5559800
EOG,20061214,69.07,70.17,68.58,69.82,6303600
EOG,20061213,68.92,69.31,68.04,68.63,3883400
EOG,20061212,68.42,69.17,67.72,68.27,4375400
EOG,20061211,68.51,69.10,67.54,68.39,4366400
EOG,20061208,69.45,69.65,68.39,68.67,4227600
EOG,20061207,69.35,69.67,68.52,68.94,3881600
EOG,20061206,68.90,70.55,68.90,69.35,4714400
EOG,20061205,69.56,69.93,68.63,69.33,6123000
EOG,20061204,69.75,70.11,68.48,69.17,5264000
EOG,20061201,69.91,70.72,68.86,70.63,5826000
EOG,20061130,71.20,71.40,69.66,70.53,11025200
EOG,20061129,71.50,72.27,69.55,72.06,12554000
EOG,20061128,69.18,71.42,69.18,70.97,7712000
EOG,20061127,69.92,70.13,68.90,68.93,5107800
EOG,20061124,69.70,70.68,69.47,69.47,2045600
EOG,20061122,69.55,69.81,68.30,69.56,6498800
EOG,20061121,68.38,69.73,67.99,69.55,8574200
EOG,20061120,67.83,68.51,67.04,68.22,5787000
EOG,20061117,65.50,68.50,65.50,68.30,7047200
EOG,20061116,69.14,69.43,65.73,65.93,6257600
EOG,20061115,67.26,69.04,67.22,68.47,6791800
EOG,20061114,67.63,67.83,66.99,67.67,4909400
EOG,20061113,66.13,67.96,66.13,66.96,4694200
EOG,20061110,68.40,68.49,66.76,67.46,4929400
EOG,20061109,68.46,69.98,67.81,69.21,9937200
EOG,20061108,66.00,67.96,65.92,67.65,5296200
EOG,20061107,67.26,67.28,65.94,66.25,5683800
EOG,20061106,66.47,67.73,65.95,66.89,5471800
EOG,20061103,66.70,68.13,66.44,67.13,5336600
EOG,20061102,65.30,66.37,64.58,65.75,6731400
EOG,20061101,66.25,66.75,65.08,66.02,6996800
EOG,20061031,66.90,67.33,65.05,66.53,8793800
EOG,20061030,67.22,68.11,66.50,67.00,7219400
EOG,20061027,69.09,70.07,67.87,68.01,4702400
EOG,20061026,71.00,71.07,68.49,69.34,6222200
EOG,20061025,67.25,70.81,67.13,70.34,8088400
EOG,20061024,65.91,69.08,65.77,68.93,8575400
EOG,20061023,65.72,66.46,65.02,66.11,6230200
EOG,20061020,67.38,67.41,65.32,66.25,5871600
EOG,20061019,66.43,67.41,65.54,67.26,7091400
EOG,20061018,66.01,66.89,65.26,66.06,7638200
EOG,20061017,66.98,67.06,65.35,66.20,6922400
EOG,20061016,64.95,67.54,64.94,67.23,8365800
EOG,20061013,63.99,65.66,63.93,64.94,7347000
EOG,20061012,62.60,64.00,62.37,63.71,7916400
EOG,20061011,63.25,63.72,62.23,62.30,8858200
EOG,20061010,62.59,64.65,62.48,63.70,8007200
EOG,20061009,63.80,64.66,62.57,62.82,6473400
EOG,20061006,63.10,63.67,61.90,63.31,7160600
EOG,20061005,64.19,64.64,62.33,63.48,10195600
EOG,20061004,62.10,63.13,59.88,62.95,14367400
EOG,20061003,63.00,63.09,61.83,62.10,11802000
EOG,20061002,65.30,65.84,64.35,64.55,8924200
EOG,20060929,64.90,65.70,63.98,65.05,10080800
EOG,20060928,65.05,65.76,63.89,63.89,10683400
EOG,20060927,64.56,65.46,63.40,65.30,9525000
EOG,20060926,63.00,64.52,62.51,64.21,10064400
EOG,20060925,61.55,63.44,60.70,63.30,11052400
EOG,20060922,62.70,62.91,61.17,62.19,8531200
EOG,20060921,61.20,63.94,61.17,62.50,10812200
EOG,20060920,61.23,62.17,60.30,60.99,9866600
EOG,20060919,62.70,63.21,60.94,61.90,8160000
EOG,20060918,60.80,63.88,60.78,62.69,11490600
EOG,20060915,59.15,60.00,58.60,59.84,7891000
EOG,20060914,60.96,61.55,58.49,58.72,7511800
EOG,20060913,59.71,61.69,59.71,60.78,8156000
EOG,20060912,59.88,60.71,59.04,59.82,5947000
EOG,20060911,59.98,60.75,58.45,59.77,8706000
EOG,20060908,63.00,63.30,60.63,60.89,5913400
EOG,20060907,62.67,63.70,62.19,63.00,6266200
EOG,20060906,65.28,65.55,63.07,63.15,7770600
EOG,20060905,65.32,66.82,65.32,66.61,3977400
EOG,20060901,64.85,66.12,64.85,65.94,2716600
EOG,20060831,64.65,65.91,64.33,64.82,7127400
EOG,20060830,65.63,66.26,64.13,65.19,5925000
EOG,20060829,67.29,67.30,65.50,65.63,8155000
EOG,20060828,67.50,68.84,67.05,67.83,4244400
EOG,20060825,68.80,69.91,68.35,69.13,6182200
EOG,20060824,66.00,67.56,65.56,67.41,4852800
EOG,20060823,67.00,67.74,65.62,65.79,3940800
EOG,20060822,66.50,67.41,66.25,67.14,3630400
EOG,20060821,66.59,67.43,66.45,66.52,4210400
EOG,20060818,65.50,66.60,65.15,66.34,5518400
EOG,20060817,64.48,65.59,64.21,65.44,6280200
EOG,20060816,66.25,67.23,64.94,65.32,7927400
EOG,20060815,66.96,66.96,65.75,66.20,6660600
EOG,20060814,67.64,67.67,65.85,66.13,6355600
EOG,20060811,69.65,69.71,67.90,68.14,4461600
EOG,20060810,70.06,70.27,68.73,69.90,5728200
EOG,20060809,70.32,71.71,69.60,70.32,5452200
EOG,20060808,69.51,70.61,69.07,69.15,5818600
EOG,20060807,69.79,70.87,68.97,69.90,5650400
EOG,20060804,69.60,70.20,68.37,69.59,6346000
EOG,20060803,68.85,70.42,68.80,69.35,6532400
EOG,20060802,72.10,73.33,70.27,70.82,7301800
EOG,20060801,72.17,73.65,71.07,71.43,10340400
EOG,20060731,72.90,75.56,72.75,74.15,8759800
EOG,20060728,70.00,72.06,69.62,72.06,5209600
EOG,20060727,72.42,72.61,70.27,70.62,5902800
EOG,20060726,69.25,72.19,68.64,71.83,7771600
EOG,20060725,68.52,70.48,68.01,69.38,6276200
EOG,20060724,65.15,67.65,65.00,67.37,6582200
EOG,20060721,66.85,66.90,64.30,64.40,7471800
EOG,20060720,68.11,68.77,66.50,66.50,4677000
EOG,20060719,66.88,68.43,66.55,67.99,5868000
EOG,20060718,68.50,68.56,65.52,66.88,6547200
EOG,20060717,69.25,69.63,66.82,67.45,7260600
EOG,20060714,69.86,70.30,67.59,70.15,6542000
EOG,20060713,70.40,71.15,69.08,69.50,8760000
EOG,20060712,70.11,71.30,69.37,70.25,5939000
EOG,20060711,70.05,70.92,69.54,70.50,5190600
EOG,20060710,68.25,70.24,68.25,69.56,6925400
EOG,20060707,71.90,72.38,68.57,69.07,9805800
EOG,20060706,71.70,72.45,70.88,71.08,7342000
EOG,20060705,70.69,71.82,69.55,71.63,7513200
EOG,20060703,70.21,71.18,69.86,70.89,2915200
EOG,20060630,68.69,69.98,68.26,69.34,7356800
EOG,20060629,67.60,69.48,67.01,68.44,7371400
EOG,20060628,66.55,66.82,65.64,66.43,5778400
EOG,20060627,66.06,66.85,65.80,66.08,8102400
EOG,20060626,64.52,65.81,63.70,65.60,5161400
EOG,20060623,63.87,65.75,63.73,64.57,10949200
EOG,20060622,60.05,61.42,60.00,60.65,5834200
EOG,20060621,59.19,61.85,59.19,60.86,6675600
EOG,20060620,59.27,60.61,58.75,59.09,8140800
EOG,20060619,62.78,62.80,58.45,59.05,9472400
EOG,20060616,62.12,63.78,60.95,63.04,8184000
EOG,20060615,61.00,63.10,60.75,62.63,9085000
EOG,20060614,57.95,60.68,57.84,60.44,11066400
EOG,20060613,57.12,59.08,56.31,57.36,12742400
EOG,20060612,59.75,60.60,57.40,57.48,7492400
EOG,20060609,61.07,61.89,59.24,59.75,6952800
EOG,20060608,59.82,61.05,57.09,60.80,16606200
EOG,20060607,63.40,64.05,61.07,61.25,8374000
EOG,20060606,63.06,64.97,62.82,64.09,7688200
EOG,20060605,66.44,66.70,62.66,62.92,6749200
EOG,20060602,66.88,66.88,64.71,65.91,5804800
EOG,20060601,64.13,66.80,63.79,65.95,8023000
EOG,20060531,62.90,65.69,62.34,65.66,8375000
EOG,20060530,64.75,65.20,62.78,62.90,5387800
EOG,20060526,63.30,64.32,62.61,63.62,6542600
EOG,20060525,60.62,63.32,60.62,62.50,7464000
EOG,20060524,61.00,62.89,59.60,61.29,9123200
EOG,20060523,64.75,65.53,61.81,62.16,8348800
EOG,20060522,61.70,63.23,60.09,62.89,10571800
EOG,20060519,62.10,63.79,61.45,62.70,9691600
EOG,20060518,63.85,64.99,61.77,62.06,8639800
EOG,20060517,65.84,66.76,63.10,63.75,7152200
EOG,20060516,66.96,67.28,65.69,66.50,6984400
EOG,20060515,67.85,68.35,64.74,66.07,9394000
EOG,20060512,72.45,72.80,68.61,68.93,8909200
EOG,20060511,76.50,77.29,73.13,73.36,5822000
EOG,20060510,74.10,75.79,73.91,75.72,5328200
EOG,20060509,74.55,75.18,74.15,74.65,4173800
EOG,20060508,74.10,74.77,73.11,74.55,5253400
EOG,20060505,74.00,76.56,74.00,76.31,8844400
EOG,20060504,71.00,72.52,70.13,71.45,5248800
EOG,20060503,72.93,73.04,71.16,71.89,6103000
EOG,20060502,73.22,73.60,72.37,72.92,5823400
EOG,20060501,71.23,72.82,70.74,71.81,5776400
EOG,20060428,74.50,74.50,69.85,70.23,5004000
EOG,20060427,68.50,72.69,68.49,70.44,6405600
EOG,20060426,73.46,75.19,71.29,71.67,5618200
EOG,20060425,75.47,76.21,72.80,73.33,5305000
EOG,20060424,76.55,76.58,74.51,75.20,4527200
EOG,20060421,77.02,77.79,75.74,77.38,5788000
EOG,20060420,77.85,78.20,75.28,76.65,5177400
EOG,20060419,76.50,79.24,76.46,78.60,5876400
EOG,20060418,74.37,77.30,74.35,77.18,6605400
EOG,20060417,73.00,73.76,72.12,73.68,3533200
EOG,20060413,70.45,72.20,69.32,71.97,5784000
EOG,20060412,73.17,73.83,71.94,72.10,4184800
EOG,20060411,74.24,74.70,72.31,72.87,4336200
EOG,20060410,73.00,74.50,73.00,73.90,5183400
EOG,20060407,73.58,74.11,71.57,72.07,5020800
EOG,20060406,75.30,75.30,73.05,74.58,6889400
EOG,20060405,73.16,74.40,72.65,74.40,4957600
EOG,20060404,70.95,73.23,70.75,73.10,5307000
EOG,20060403,73.40,73.94,71.57,71.90,5713800
EOG,20060331,73.01,73.20,71.43,72.00,5810400
EOG,20060330,73.85,75.22,73.70,74.03,5262400
EOG,20060329,72.50,74.40,72.50,73.75,6619400
EOG,20060328,72.50,73.38,72.09,72.56,5503600
EOG,20060327,71.00,72.46,70.40,71.91,6677200
EOG,20060324,70.79,72.55,70.64,71.95,5447600
EOG,20060323,69.93,71.65,69.79,70.53,6180400
EOG,20060322,68.50,70.85,68.29,69.44,5988600
EOG,20060321,67.75,70.11,67.50,68.47,6559400
EOG,20060320,71.00,72.38,68.37,68.50,8484400
EOG,20060317,73.39,73.42,72.17,72.56,6091800
EOG,20060316,70.14,73.13,70.00,72.95,8534000
EOG,20060315,68.35,70.48,67.70,70.39,6449800
EOG,20060314,67.69,69.65,66.24,69.31,7091200
EOG,20060313,65.80,67.95,65.79,67.69,4989800
EOG,20060310,65.17,66.81,64.20,65.48,6168600
EOG,20060309,67.75,68.20,64.94,65.30,8028400
EOG,20060308,65.10,67.45,64.65,66.75,11232800
EOG,20060307,66.62,66.79,64.12,65.25,7453000
EOG,20060306,69.50,69.90,65.82,66.62,9467600
EOG,20060303,69.25,71.06,69.25,70.35,7149400
EOG,20060302,68.35,70.55,67.77,69.32,7709600
EOG,20060301,67.56,68.74,67.32,68.35,4872600
EOG,20060228,67.49,67.64,65.61,67.40,8911800
EOG,20060227,69.65,69.95,68.15,68.29,5900000
EOG,20060224,71.16,71.49,70.01,70.15,5608400
EOG,20060223,69.84,71.81,68.45,69.85,7903600
EOG,20060222,72.25,72.38,70.09,70.55,6527600
EOG,20060221,73.54,74.50,72.00,72.63,5913000
EOG,20060217,73.00,73.48,71.45,71.55,7030600
EOG,20060216,69.64,72.25,69.62,72.06,8349600
EOG,20060215,69.85,70.85,68.37,69.34,9863200
EOG,20060214,66.00,69.13,65.98,69.01,11825400
EOG,20060213,68.69,69.60,67.70,68.26,8728400
EOG,20060210,70.65,70.95,68.16,69.37,12633000
EOG,20060209,74.20,75.30,69.50,70.30,11164600
EOG,20060208,74.00,74.20,71.35,73.94,10301600
EOG,20060207,78.25,78.55,73.91,74.00,11581000
EOG,20060206,79.85,81.44,79.85,80.25,9452200
EOG,20060203,79.75,80.17,78.53,79.11,8316000
EOG,20060202,82.70,82.70,78.72,80.71,10005200
EOG,20060201,85.15,86.91,82.53,82.95,8615000
EOG,20060131,83.00,84.89,82.25,84.54,6325600
EOG,20060130,81.00,84.18,80.95,83.42,5381800
EOG,20060127,82.50,82.50,79.82,80.39,6292000
EOG,20060126,80.30,80.50,77.59,80.14,7458000
EOG,20060125,83.25,83.90,79.70,81.23,7735400
EOG,20060124,83.62,84.96,83.05,83.24,5526400
EOG,20060123,84.00,84.80,82.85,84.57,6137600
EOG,20060120,85.10,86.32,83.54,84.81,7738000
EOG,20060119,79.96,84.14,79.74,84.03,7155000
EOG,20060118,81.75,82.00,78.61,80.51,5511800
EOG,20060117,81.35,82.54,81.00,82.54,6236800
EOG,20060113,78.00,80.47,77.90,80.19,5704200
EOG,20060112,78.92,81.24,78.09,78.30,6726400
EOG,20060111,77.91,78.78,76.76,78.38,5516600
EOG,20060110,78.24,79.90,77.82,78.00,5138800
EOG,20060109,77.82,78.41,76.14,78.16,5280400
EOG,20060106,77.26,78.93,77.26,77.80,5636200
EOG,20060105,78.65,78.65,75.51,76.08,6880800
EOG,20060104,77.75,79.19,77.51,79.05,6206600
EOG,20060103,74.00,79.05,74.00,78.97,8827000
EOG,20051230,72.00,74.10,71.98,73.37,3262600
EOG,20051229,74.18,75.37,73.16,73.37,3347800
EOG,20051228,73.28,74.84,72.85,74.25,3684600
EOG,20051227,75.17,75.21,71.79,72.65,5811000
EOG,20051223,74.65,76.00,73.52,75.98,3915000
EOG,20051222,77.32,77.71,75.84,76.05,5356800
EOG,20051221,78.03,78.37,76.24,76.87,4245600
EOG,20051220,76.95,77.93,76.56,77.56,3520000
EOG,20051219,77.98,78.59,76.31,77.01,3919400
EOG,20051216,80.87,80.87,77.40,77.65,5594600
EOG,20051215,80.84,82.00,79.60,80.74,6274800
EOG,20051214,79.30,80.90,78.80,80.84,6184000
EOG,20051213,80.00,82.00,79.09,79.16,7952800
EOG,20051212,78.90,79.97,78.00,78.80,5139400
EOG,20051209,77.81,78.10,75.98,76.68,5071000
EOG,20051208,76.56,78.70,76.32,78.65,6130000
EOG,20051207,76.25,78.38,75.32,76.35,5355800
EOG,20051206,74.90,75.99,74.35,75.86,6425200
EOG,20051205,77.10,77.65,75.22,75.77,5061000
EOG,20051202,74.85,75.49,73.40,75.19,4964400
EOG,20051201,72.49,74.83,72.30,74.68,7021400
EOG,20051130,72.00,72.60,71.02,71.75,5607400
EOG,20051129,70.15,71.44,69.60,71.04,6579600
EOG,20051128,71.20,71.30,68.40,68.89,5447000
EOG,20051125,71.71,72.93,71.59,72.90,1428000
EOG,20051123,71.50,72.74,70.52,71.42,4960400
EOG,20051122,73.00,73.70,72.25,72.83,4670400
EOG,20051121,69.31,72.30,69.31,72.14,5705400
EOG,20051118,69.90,70.11,67.94,68.87,5141600
EOG,20051117,70.49,70.84,68.70,69.57,6655800
EOG,20051116,66.50,69.89,66.46,69.71,8152400
EOG,20051115,63.18,67.89,63.10,66.13,8263800
EOG,20051114,65.00,65.94,63.13,63.51,8027800
EOG,20051111,62.36,64.79,62.36,64.14,4358600
EOG,20051110,65.05,65.08,62.13,63.25,7561000
EOG,20051109,66.50,68.12,64.52,65.79,6158800
EOG,20051108,66.16,67.57,65.10,66.36,4910400
EOG,20051107,66.90,67.76,65.65,66.47,7007400
EOG,20051104,71.59,71.63,68.15,68.46,5376800
EOG,20051103,70.75,72.55,70.22,71.83,5417000
EOG,20051102,68.25,71.00,68.25,70.50,6375000
EOG,20051101,67.00,68.40,66.44,67.93,5066200
EOG,20051031,67.56,68.96,66.31,67.78,6496000
EOG,20051028,63.95,66.79,62.24,66.02,7431400
EOG,20051027,67.25,67.34,63.77,63.89,5421000
EOG,20051026,67.00,69.59,65.66,66.05,5942200
EOG,20051025,64.93,67.59,64.21,67.02,7032600
EOG,20051024,60.45,64.54,60.40,64.12,5077000
EOG,20051021,60.82,63.07,60.36,61.25,7919000
EOG,20051020,65.50,65.81,59.96,61.07,10968800
EOG,20051019,64.44,66.42,62.19,66.33,7813400
EOG,20051018,68.10,68.66,64.32,64.44,6142200
EOG,20051017,68.50,69.50,68.10,68.81,4854800
EOG,20051014,65.90,67.35,64.00,66.93,6775800
EOG,20051013,67.50,67.50,63.61,65.90,7384000
EOG,20051012,70.36,70.60,67.74,68.29,5791200
EOG,20051011,68.80,70.80,68.80,70.36,4762000
EOG,20051010,70.25,70.30,66.83,67.78,4973600
EOG,20051007,68.50,69.19,67.40,69.07,6205400
EOG,20051006,68.02,69.40,65.95,67.40,11419000
EOG,20051005,75.60,75.78,71.25,71.42,6616400
EOG,20051004,77.99,77.99,74.75,74.98,5851800
EOG,20051003,76.05,78.37,75.98,78.09,8093200
EOG,20050930,75.75,76.00,74.69,74.90,4832400
EOG,20050929,76.30,77.00,75.45,75.81,7256200
EOG,20050928,75.11,76.10,73.50,75.94,5937200
EOG,20050927,74.44,75.00,73.40,74.86,3403400
EOG,20050926,71.51,74.80,71.50,74.53,4160000
EOG,20050923,73.09,73.70,72.02,72.44,4111000
EOG,20050922,74.54,75.82,71.34,73.89,6014200
EOG,20050921,72.95,74.24,72.36,74.04,5491200
EOG,20050920,72.61,72.96,71.00,71.71,4684400
EOG,20050919,73.10,74.56,72.53,72.70,6083000
EOG,20050916,70.24,71.06,69.50,70.66,4589600
EOG,20050915,69.70,70.15,68.65,70.10,4884200
EOG,20050914,69.00,69.96,68.26,69.20,5458400
EOG,20050913,69.98,70.99,68.31,68.45,9336400
EOG,20050912,70.50,70.54,69.04,69.98,7421400
EOG,20050909,68.17,70.78,67.91,70.51,5639600
EOG,20050908,66.70,68.15,66.45,67.49,4125200
EOG,20050907,66.50,67.30,65.65,66.39,4300200
EOG,20050906,66.29,66.35,64.98,66.18,3225200
EOG,20050902,66.09,66.32,64.84,65.25,5840600
EOG,20050901,65.10,66.58,64.33,66.47,7270200
EOG,20050831,64.10,65.21,63.06,63.83,11823600
EOG,20050830,62.25,63.43,62.25,63.20,5882000
EOG,20050829,62.75,63.02,60.77,61.74,5745800
EOG,20050826,61.54,62.00,60.25,60.46,3045200
EOG,20050825,61.02,61.98,61.02,61.66,3194800
EOG,20050824,61.00,62.38,60.70,61.69,3129200
EOG,20050823,61.86,62.05,59.85,61.00,3677600
EOG,20050822,61.50,61.98,60.80,61.41,2712200
EOG,20050819,60.90,61.35,60.84,61.08,2866000
EOG,20050818,59.48,60.62,58.75,60.05,4373000
EOG,20050817,61.19,62.40,59.17,59.75,5658600
EOG,20050816,62.50,63.18,61.10,61.19,3429800
EOG,20050815,64.60,64.60,62.66,62.98,2682400
EOG,20050812,64.06,64.44,63.47,63.69,2937000
EOG,20050811,63.15,64.12,63.13,64.10,3341600
EOG,20050810,62.70,63.72,62.25,63.15,4457200
EOG,20050809,62.24,62.60,61.36,61.75,2626400
EOG,20050808,62.46,63.34,61.91,62.10,3572200
EOG,20050805,62.86,62.96,61.18,61.95,2724400
EOG,20050804,62.15,63.36,61.82,62.39,3720400
EOG,20050803,62.72,62.96,61.58,62.00,2706400
EOG,20050802,61.65,62.69,61.22,62.65,3888600
EOG,20050801,63.05,63.05,61.15,61.22,3140200
EOG,20050729,61.05,61.40,60.72,61.10,3810200
EOG,20050728,62.21,63.71,59.02,60.85,10402800
EOG,20050727,65.30,65.88,63.67,63.79,6249000
EOG,20050726,64.97,65.39,64.01,65.35,4314400
EOG,20050725,63.25,64.95,62.71,64.30,4514200
EOG,20050722,60.75,63.53,60.24,63.53,4257800
EOG,20050721,60.65,61.12,59.44,60.23,3541200
EOG,20050720,60.50,60.99,59.23,60.68,3321200
EOG,20050719,57.18,60.15,57.18,60.15,2710200
EOG,20050718,58.59,58.59,57.50,58.13,2991400
EOG,20050715,59.22,59.90,58.14,58.68,4797000
EOG,20050714,61.10,61.40,58.78,59.13,4598800
EOG,20050713,61.75,61.75,60.20,60.76,2578200
EOG,20050712,60.75,61.75,60.50,61.35,4407400
EOG,20050711,59.80,60.69,59.49,60.43,3566000
EOG,20050708,60.60,61.39,59.41,60.46,4345400
EOG,20050707,58.70,60.37,58.30,60.35,4500400
EOG,20050706,60.07,60.70,58.86,59.01,3570200
EOG,20050705,59.00,60.05,58.80,59.95,4493400
EOG,20050701,57.68,58.72,57.52,58.48,4037800
EOG,20050630,55.95,57.94,55.91,56.80,4697000
EOG,20050629,55.90,56.65,55.80,56.47,3582200
EOG,20050628,56.69,56.72,55.62,56.00,4123000
EOG,20050627,56.01,57.30,56.01,56.74,5071200
EOG,20050624,56.90,57.35,55.60,55.90,4817000
EOG,20050623,57.00,57.92,56.50,56.72,4413800
EOG,20050622,57.00,57.67,56.57,56.85,7096400
EOG,20050621,57.00,57.44,56.30,56.50,4899200
EOG,20050620,57.15,57.73,56.66,57.33,4439200
EOG,20050617,56.30,56.45,55.18,56.15,5816400
EOG,20050616,56.05,56.35,55.63,56.04,2695200
EOG,20050615,56.00,56.30,55.42,55.59,3338800
EOG,20050614,54.74,55.47,54.43,55.41,3169600
EOG,20050613,53.95,54.80,53.61,54.74,2613600
EOG,20050610,54.25,54.43,53.67,54.17,2781400
EOG,20050609,52.70,54.16,52.53,54.15,4287400
EOG,20050608,50.92,53.13,50.88,52.46,5831600
EOG,20050607,52.25,52.49,50.74,50.92,3653400
EOG,20050606,52.19,52.46,51.61,52.11,2055800
EOG,20050603,51.85,52.27,51.15,51.67,2109800
EOG,20050602,51.80,52.00,50.95,51.57,3712400
EOG,20050601,50.55,51.95,49.13,51.59,3884600
EOG,20050531,49.70,50.18,49.42,49.89,4525000
EOG,20050527,50.72,51.00,50.22,50.90,2058200
EOG,20050526,50.00,50.62,49.77,50.54,2927800
EOG,20050525,49.79,50.50,49.31,50.00,3662600
EOG,20050524,49.26,49.87,48.86,49.82,2862400
EOG,20050523,48.95,49.47,48.45,49.25,4221400
EOG,20050520,47.55,48.00,47.07,47.86,5763000
EOG,20050519,46.60,47.26,46.35,47.20,3912400
EOG,20050518,46.38,47.22,45.81,46.43,4520600
EOG,20050517,44.55,46.14,44.55,46.11,3652000
EOG,20050516,44.73,44.89,43.51,44.83,4869400
EOG,20050513,45.85,45.85,42.40,44.99,8787000
EOG,20050512,48.60,48.67,45.00,45.48,10188000
EOG,20050511,48.50,49.30,48.30,48.94,4963600
EOG,20050510,49.79,50.12,48.83,49.03,3057000
EOG,20050509,50.02,50.19,49.57,49.96,4281000
EOG,20050506,50.24,50.40,49.40,49.72,5217200
EOG,20050505,49.40,50.10,49.07,49.94,5599600
EOG,20050504,48.77,49.00,47.45,48.79,8089400
EOG,20050503,48.85,49.10,48.20,48.52,5300200
EOG,20050502,46.95,49.44,46.60,49.41,5359400
EOG,20050429,48.10,48.40,46.97,47.55,4975400
EOG,20050428,47.38,47.95,46.79,47.29,6088200
EOG,20050427,47.90,48.80,46.04,47.78,8047600
EOG,20050426,48.31,48.40,47.55,47.75,3822800
EOG,20050425,48.40,49.37,47.95,48.31,3542400
EOG,20050422,47.16,47.91,46.63,47.35,3497600
EOG,20050421,45.75,47.14,45.59,47.07,3187600
EOG,20050420,46.62,47.24,45.45,45.55,3523400
EOG,20050419,45.30,46.88,45.24,46.60,5369000
EOG,20050418,43.70,44.82,42.80,44.78,4945000
EOG,20050415,46.10,46.15,43.49,43.62,7069000
EOG,20050414,46.30,47.35,45.49,45.70,6256800
EOG,20050413,47.35,47.40,45.60,45.81,4871200
EOG,20050412,48.56,48.78,47.17,47.39,4081600
EOG,20050411,47.29,48.62,46.85,48.56,3903200
EOG,20050408,48.90,49.02,47.16,47.29,6119800
EOG,20050407,50.90,50.96,48.45,49.12,5305600
EOG,20050406,49.90,50.41,48.91,50.03,6983000
EOG,20050405,50.07,50.95,49.45,49.97,6049600
EOG,20050404,50.67,52.50,49.36,50.07,8144000
EOG,20050401,49.25,50.32,49.10,50.26,6116800
EOG,20050331,47.75,48.84,47.65,48.74,6218600
EOG,20050330,44.90,46.38,44.10,46.37,7224800
EOG,20050329,45.28,46.23,44.70,44.75,4537400
EOG,20050328,45.50,46.04,44.93,45.28,3214200
EOG,20050324,45.17,46.51,44.91,45.49,4159400
EOG,20050323,46.27,46.27,44.45,45.03,6357200
EOG,20050322,47.66,48.21,46.49,46.60,3800600
EOG,20050321,48.21,48.22,46.97,47.66,3921800
EOG,20050318,48.00,48.43,47.50,48.21,9162200
EOG,20050317,45.50,46.58,45.48,46.33,6963600
EOG,20050316,44.88,46.08,44.17,45.30,5241800
EOG,20050315,45.65,46.37,44.86,44.88,3427000
EOG,20050314,45.55,45.85,44.46,45.77,3761600
EOG,20050311,44.86,45.80,44.72,45.38,4439600
EOG,20050310,46.00,46.01,44.07,44.86,7807200
EOG,20050309,47.40,48.41,46.52,46.62,8835000
EOG,20050308,46.00,47.16,46.00,47.06,4038000
EOG,20050307,46.50,46.65,45.44,46.19,3633800
EOG,20050304,45.88,47.32,45.56,46.79,3801200
EOG,20050303,45.70,46.60,45.36,45.88,5651600
EOG,20050302,43.97,45.21,43.78,44.98,4772600
EOG,20050301,90.40,90.80,87.47,87.95,8655200
EOG,20050228,91.70,93.30,89.22,91.12,10749200
EOG,20050225,88.34,91.75,88.34,91.50,7637600
EOG,20050224,86.90,88.33,86.47,88.33,6450000
EOG,20050223,86.30,87.15,86.18,86.44,7080800
EOG,20050222,86.22,88.33,86.22,86.60,9565600
EOG,20050218,83.85,86.11,83.78,85.57,8029200
EOG,20050217,85.45,85.65,83.27,83.56,8656800
EOG,20050216,82.25,85.30,82.25,84.99,8003200
EOG,20050215,82.15,82.89,81.46,82.17,4679200
EOG,20050214,81.30,82.25,81.30,82.15,7218800
EOG,20050211,80.00,81.61,79.51,81.25,6347200
EOG,20050210,78.95,80.23,78.71,80.00,4697600
EOG,20050209,77.55,79.15,76.67,78.24,5892400
EOG,20050208,76.95,78.18,76.20,77.69,5128400
EOG,20050207,76.65,77.00,75.79,76.96,5828000
EOG,20050204,77.40,77.74,76.16,76.65,6324400
EOG,20050203,78.50,78.70,75.92,77.28,8987600
EOG,20050202,76.00,76.62,75.69,76.62,4852000
EOG,20050201,74.75,76.10,74.73,75.95,5659200
EOG,20050131,74.00,74.80,73.27,74.25,6724800
EOG,20050128,73.58,74.08,73.06,74.00,5884000
EOG,20050127,72.95,74.39,72.70,73.57,3816000
EOG,20050126,72.35,73.08,71.80,72.94,4766800
EOG,20050125,72.39,72.89,71.48,71.91,3914800
EOG,20050124,72.15,72.57,72.08,72.13,5111200
EOG,20050121,72.45,72.48,71.41,71.65,5141200
EOG,20050120,70.50,71.62,69.62,71.12,5607200
EOG,20050119,71.61,72.22,70.85,70.90,3413600
EOG,20050118,70.80,72.00,70.80,71.62,7349200
EOG,20050114,68.55,70.11,68.28,69.95,3964400
EOG,20050113,68.15,69.31,67.80,68.54,5078800
EOG,20050112,67.03,67.98,66.10,67.80,6363200
EOG,20050111,66.85,67.30,66.06,66.95,4511600
EOG,20050110,66.20,67.45,66.13,66.51,4525600
EOG,20050107,65.95,65.95,64.59,65.48,4044400
EOG,20050106,64.95,67.00,64.19,65.91,8714800
EOG,20050105,65.50,65.90,64.10,64.95,7855200
EOG,20050104,66.71,67.40,65.30,65.50,11683200
EOG,20050103,71.36,71.36,66.15,66.55,12024400
EOG,20041231,71.10,71.66,70.92,71.36,2445600
EOG,20041230,71.05,71.50,70.60,70.90,2900400
EOG,20041229,71.50,71.72,70.82,71.27,4131600
EOG,20041228,70.50,71.37,70.50,71.30,3164800
EOG,20041227,72.40,72.40,70.31,70.40,2939200
EOG,20041223,72.01,73.00,71.94,72.40,3347600
EOG,20041222,73.95,74.10,71.55,72.00,6141200
EOG,20041221,73.46,74.19,73.35,73.88,2670800
EOG,20041220,73.15,73.75,73.00,73.45,2843600
EOG,20041217,72.00,73.23,71.96,73.19,4255200
EOG,20041216,73.10,73.10,71.65,71.85,3598800
EOG,20041215,72.25,73.55,71.52,73.26,4163200
EOG,20041214,71.81,72.28,71.22,72.05,3718800
